1,94793036838861E-6;
3,01249613795006E-6;
3,23603528281014E-6;
2,6746958985627E-6;
1,9340885216182E-6;
1,64670689101535E-6;
1,89937034295904E-6;
2,10698644188251E-6;
1,47541780032438E-6;
-2,98794735367567E-7;
-2,6676043258459E-6;
-4,53573988517114E-6;
-5,02236622945755E-6;
-4,0886718485116E-6;
-2,53068223161007E-6;
-1,34048151766833E-6;
-9,4932398116276E-7;
-9,61177336363818E-7;
-5,80263998367031E-7;
6,38641197590311E-7;
2,35586815919453E-6;
3,69992289039813E-6;
3,99544591220523E-6;
3,34159939120997E-6;
2,52988553497354E-6;
2,34584479429298E-6;
2,83596903762492E-6;
3,18126028777226E-6;
2,33327694518452E-6;
-7,28156310302925E-8;
-3,27624674318221E-6;
-5,81718580648056E-6;
-6,53588531753657E-6;
-5,37519731471285E-6;
-3,3589675219629E-6;
-1,77093182749501E-6;
-1,19470891618071E-6;
-1,17564898622615E-6;
-7,46575073247095E-7;
6,51515429914259E-7;
2,63872481311733E-6;
4,19987830711639E-6;
4,55411726517725E-6;
3,83498899252753E-6;
2,97808940105998E-6;
2,88578975099175E-6;
3,57025071102481E-6;
4,02848213645895E-6;
3,01407750442006E-6;
1,15745956855058E-7;
-3,73891392684288E-6;
-6,80597416937503E-6;
-7,70865888980996E-6;
-6,37486268304529E-6;
-4,00402304146326E-6;
-2,10539894324104E-6;
-1,38184626851939E-6;
-1,33636131126573E-6;
-8,72301535135128E-7;
6,56589527463989E-7;
2,84233831694542E-6;
4,56415796058935E-6;
4,96401915574134E-6;
4,20215515509395E-6;
3,32119194723235E-6;
3,30832764203506E-6;
4,14691420805443E-6;
4,69441433370748E-6;
3,55650169806155E-6;
2,88610803491203E-7;
-4,05565612266193E-6;
-7,51972960569104E-6;
-8,56475235175517E-6;
-7,10672170996414E-6;
-4,47442374205111E-6;
-2,34401305908323E-6;
-1,50811035958366E-6;
-1,44158821003013E-6;
-9,55305681669311E-7;
6,60787017165041E-7;
2,98121030634097E-6;
4,81296411924024E-6;
5,24568922713571E-6;
4,45948802512647E-6;
3,57145322925148E-6;
3,62558430888429E-6;
4,58145632677391E-6;
5,19621774206231E-6;
3,97166535723948E-6;
4,41488519686698E-7;
-4,25068831614752E-6;
-7,99854445613439E-6;
-9,14950106278913E-6;
-7,6104199753899E-6;
-4,79886210545587E-6;
-2,50639101533897E-6;
-1,58942320190579E-6;
-1,50701026913182E-6;
-1,00979825466857E-6;
6,55479991651463E-7;
3,0549362782055E-6;
4,95236198197125E-6;
5,40662773561038E-6;
4,61171780547444E-6;
3,73085260020185E-6;
3,8405529766325E-6;
4,88117098514734E-6;
5,54382353251541E-6;
4,26481035051026E-6;
5,66064547732848E-7;
-4,35017677199318E-6;
-8,28266528683361E-6;
-9,50724964969873E-6;
-7,92411654926184E-6;
-5,00437414057709E-6;
-2,61023603497623E-6;
-1,63924221858908E-6;
-1,54514642007437E-6;
-1,04628605331041E-6;
6,3597448009851E-7;
3,06706361951E-6;
4,99246265750734E-6;
5,4587822784332E-6;
4,66867895976698E-6;
3,80711881163964E-6;
3,96234375336459E-6;
5,05955463260059E-6;
5,75349984645939E-6;
4,44806889434184E-6;
6,61987403112388E-7;
-4,3710261876359E-6;
-8,40206655531874E-6;
-9,67173669327878E-6;
-8,07573901837889E-6;
-5,10849087327512E-6;
-2,66436096416473E-6;
-1,66243549330409E-6;
-1,56004856714695E-6;
-1,06704658187456E-6;
6,05247106786029E-7;
3,02805187393288E-6;
4,94965616056024E-6;
5,42007848748268E-6;
4,64618011300077E-6;
3,81395036398314E-6;
4,00576327053398E-6;
5,13529647261258E-6;
5,84628072756346E-6;
4,53838145543562E-6;
7,34334309402359E-7;
-4,32381056090681E-6;
-8,37974337581568E-6;
-9,66977774728128E-6;
-8,08705064144175E-6;
-5,12365091140984E-6;
-2,67342265921166E-6;
-1,66028256909426E-6;
-1,55252258693964E-6;
-1,0715614697976E-6;
5,68348543232976E-7;
2,94954126041334E-6;
4,84074286256676E-6;
5,30846696317527E-6;
4,55999151684101E-6;
3,76496779798876E-6;
3,98525757657102E-6;
5,12621637341826E-6;
5,84194171964427E-6;
4,55153656355291E-6;
7,87764189713961E-7;
-4,21848053713427E-6;
-8,23730142203107E-6;
-9,52670342565762E-6;
-7,97893148100476E-6;
-5,06233554361473E-6;
-2,64288836084068E-6;
-1,6352773573779E-6;
-1,52474644276539E-6;
-1,06091363788406E-6;
5,28208137836617E-7;
2,8403647957679E-6;
4,67918922868536E-6;
5,13840972224381E-6;
4,42255237073854E-6;
3,67064468551513E-6;
3,9120704276077E-6;
5,0466499927183E-6;
5,75660391459849E-6;
4,50001901800977E-6;
8,24588117579524E-7;
-4,06608054217144E-6;
-7,99642438711416E-6;
-9,26760452213679E-6;
-7,77241403620814E-6;
-4,93790403265826E-6;
-2,57968691320384E-6;
-1,59157310338143E-6;
-1,48052814573201E-6;
-1,03787779378809E-6;
4,85730495534562E-7;
2,70682234918485E-6;
4,47554511269332E-6;
4,92143280305777E-6;
4,24365792049859E-6;
3,53911129088565E-6;
3,79514841249858E-6;
4,90846002206698E-6;
5,60384735984745E-6;
4,39419660633809E-6;
8,460412851388E-7;
-3,8773991340507E-6;
-7,67748518228894E-6;
-8,91589351395538E-6;
-7,48718792332836E-6;
-4,7630403370193E-6;
-2,49061169423882E-6;
-1,53337019544701E-6;
-1,42368327659771E-6;
-1,00528721027994E-6;
4,41442061591975E-7;
2,5543382812376E-6;
4,23910889057451E-6;
4,66778349139141E-6;
4,03208671320645E-6;
3,37774452943943E-6;
3,64269487821334E-6;
4,72255669503783E-6;
5,39619602317377E-6;
4,24375427609451E-6;
8,53630747959498E-7;
-3,66170776624845E-6;
-7,29834885278654E-6;
-8,4921628899496E-6;
-7,14050546177752E-6;
-4,54870014354877E-6;
-2,38130561005194E-6;
-1,46396367042347E-6;
-1,35713770320221E-6;
-9,65176463256083E-7;
3,96287911262042E-7;
2,38821609314169E-6;
3,97864034917586E-6;
4,38707098325421E-6;
3,79616229707531E-6;
3,1936596225922E-6;
3,46260142105559E-6;
4,4992684506679E-6;
5,14542840721728E-6;
4,05794419906276E-6;
8,49315782762406E-7;
-3,42667210805022E-6;
-6,87437122198571E-6;
-8,01423787875235E-6;
-6,7472610349866E-6;
-4,30420973562605E-6;
-2,25639028325015E-6;
-1,3858930303705E-6;
-1,28312111307079E-6;
-9,19021387960857E-7;
3,51398037202028E-7;
2,21339820333734E-6;
3,70210881109201E-6;
4,0880169286711E-6;
3,54347196888692E-6;
2,99338584220131E-6;
3,26210332313825E-6;
4,24799335774761E-6;
4,86221861305166E-6;
3,8451958139223E-6;
8,35061853611622E-7;
-3,17885809822082E-6;
-6,41894457893219E-6;
-7,4977370990125E-6;
-6,3205300269694E-6;
-4,03775961733696E-6;
-2,11992491638604E-6;
-1,30139275337011E-6;
-1,20360449491795E-6;
-8,68155835758407E-7;
3,0768828008904E-7;
2,03411485041822E-6;
3,41636952126184E-6;
3,77811851429518E-6;
3,28053817864353E-6;
2,78254799024588E-6;
3,04746701061997E-6;
3,97691898639183E-6;
4,5558859708247E-6;
3,6128604930458E-6;
8,12557713965943E-7;
-2,92405356299205E-6;
-5,94385179490207E-6;
-6,95641472114388E-6;
-5,87187114069088E-6;
-3,75666777935567E-6;
-1,97562119035528E-6;
-1,21257094106725E-6;
-1,12046669074938E-6;
-8,1391419052109E-7;
2,6575742225012E-7;
1,85382223045924E-6;
3,12715313464801E-6;
3,463676416254E-6;
3,01284181806914E-6;
2,56588361629055E-6;
2,82402312906703E-6;
3,69306408446995E-6;
4,23445120085203E-6;
3,3672729993016E-6;
7,83236695865905E-7;
-2,66729889838973E-6;
-5,45933141369813E-6;
-6,40224021633625E-6;
-5,41137368045225E-6;
-3,4673599663187E-6;
-1,82678978733288E-6;
-1,12134692104271E-6;
-1,03541704667648E-6;
-7,57539270387907E-7;
2,26010305470098E-7;
1,67536163883889E-6;
2,83925218281841E-6;
3,1499847732094E-6;
2,74499400550335E-6;
2,34740703619576E-6;
2,59633934067661E-6;
3,40247873123278E-6;
3,90484291408518E-6;
3,11392850034321E-6;
7,48403885211747E-7;
-2,41283734064209E-6;
-4,97408728349501E-6;
-5,84541393314529E-6;
-4,94765431489483E-6;
-3,17533688172022E-6;
-1,676263943999E-6;
-1,02935262231328E-6;
-9,49903626264633E-7;
-7,00094078569293E-7;
1,88765631688505E-7;
1,5011030947665E-6;
2,55667325478558E-6;
2,84148585945618E-6;
2,48089447625207E-6;
2,13054296623378E-6;
2,36833845467066E-6;
3,11036677467643E-6;
3,57302393650455E-6;
2,85758534907727E-6;
7,09282440299199E-7;
-2,1641342993685E-6;
-4,49536911190008E-6;
-5,29447361404536E-6;
-4,48793572424685E-6;
-2,88520748094924E-6;
-1,52641000581729E-6;
-9,3793958349388E-7;
-8,65123806970174E-7;
-6,4245940301624E-7;
1,54280741605871E-7;
1,33299469198352E-6;
2,28272610685794E-6;
2,54185193928377E-6;
2,22377613992814E-6;
1,91816411155821E-6;
2,14333717457712E-6;
2,8211364567547E-6;
3,24405460403528E-6;
2,60230912712072E-6;
6,66994333860756E-7;
-1,92397557532004E-6;
-4,02912230397267E-6;
-4,75645625927676E-6;
-4,03818916579472E-6;
-2,60079412211269E-6;
-1,37919454033108E-6;
-8,48230239175623E-7;
-7,82068878344973E-7;
-5,85377932268827E-7;
1,22721740455336E-7;
1,17257146112869E-6;
2,02005145865767E-6;
2,25403066475238E-6;
1,97625139000274E-6;
1,7126156749145E-6;
1,92408054682722E-6;
2,53844853029352E-6;
2,92214068170994E-6;
2,35150318746884E-6;
6,22537493161119E-7;
-1,6945603933356E-6;
-3,58013876998924E-6;
-4,23707141430126E-6;
-3,60328043134943E-6;
-2,32522665028541E-6;
-1,23624304493279E-6;
-7,61154602410539E-7;
-7,01558859864776E-7;
-5,29482383319817E-7;
9,41722829533135E-8;
1,02099474597796E-6;
1,77068128751393E-6;
1,98030525711462E-6;
1,74035763078703E-6;
1,51575314545676E-6;
1,71277518459325E-6;
2,26526955030428E-6;
2,61070069116463E-6;
2,10795096595549E-6;
5,76782454100278E-7;
-1,4775701318963E-6;
-3,15218417973194E-6;
-3,74083519859893E-6;
-3,18707692409786E-6;
-2,06101216802527E-6;
-1,09886803767098E-6;
-6,77471394815536E-7;
-6,2426582502369E-7;
-4,75303651873305E-7;
6,86350789168501E-8;
8,79086252353593E-7;
1,53611231701846E-6;
1,72237169526486E-6;
1,51762198532996E-6;
1,32899973792167E-6;
1,51115021336013E-6;
2,0039442555459E-6;
2,31244823431975E-6;
1,87388754010137E-6;
5,30488041195376E-7;
-1,27422596155537E-6;
-2,7480982774618E-6;
-3,27118866731951E-6;
-2,79255022677927E-6;
-1,81009162771561E-6;
-9,68099177246258E-7;
-5,97778524560579E-7;
-5,50715250923188E-7;
-4,23272955647079E-7;
4,60649526803659E-8;
7,47389662693097E-7;
1,31737221493324E-6;
1,4814182342197E-6;
1,30913485580377E-6;
1,15340356005807E-6;
1,32052103099918E-6;
1,75627676297177E-6;
2,02948040572967E-6;
1,65105999110719E-6;
4,84308236166331E-7;
-1,08533755692574E-6;
-2,36990250686024E-6;
-2,8306249524331E-6;
-2,4218716440266E-6;
-1,57389919153335E-6;
-8,44707315117048E-7;
-5,2252297987731E-7;
-4,81297206884386E-7;
-3,73725894866922E-7;
2,63679912193594E-8;
6,26204359360728E-7;
1,1150938018665E-6;
1,25819326053113E-6;
1,11560338114817E-6;
9,89684104534615E-7;
1,14183390417149E-6;
1,52358456400195E-6;
1,76333930629418E-6;
1,44078403980506E-6;
4,38808139997956E-7;
-9,11359998711478E-7;
-2,01890642348704E-6;
-2,42080433336052E-6;
-2,07651456149879E-6;
-1,35342732422567E-6;
-7,29232437310261E-7;
-4,52019657356916E-7;
-4,16290867687298E-7;
-3,26916628445756E-7;
9,42142762248767E-9;
5,15624489027836E-7;
9,29563865277407E-7;
1,05306664652016E-6;
9,37404790135168E-7;
8,38273984257551E-7;
9,75713575842579E-7;
1,30676289931753E-6;
1,51508282126664E-6;
1,24398957986602E-6;
3,94461453517693E-7;
-7,52447328286287E-7;
-1,69580497746498E-6;
-2,04267157858965E-6;
-1,75734788559131E-6;
-1,14927950065783E-6;
-6,22020729553005E-7;
-3,8647375516269E-7;
-3,55868093419108E-7;
-2,83025708075412E-7;
-4,92940329045986E-9;
4,15567004817062E-7;
7,60772991650159E-7;
8,66078185973155E-7;
7,74628466049179E-7;
6,99359906458829E-7;
8,22504680733092E-7;
1,10633690744895E-6;
1,28534461697455E-6;
1,06126895559888E-6;
3,51659292611933E-7;
-6,08504441380506E-7;
-1,40076870848909E-6;
-1,69655087191583E-6;
-1,46471930447716E-6;
-9,61733416856409E-7;
-5,23251084659521E-7;
-3,25988626732489E-7;
-3,00116615410308E-7;
-2,42171532225505E-7;
-1,68553805751008E-8;
3,25801524582165E-7;
6,08462234791607E-7;
6,96999173110598E-7;
6,27128044580958E-7;
5,72914817387287E-7;
6,82308530683046E-7;
9,22508701008275E-7;
1,0743945887948E-6;
8,92924173650087E-7;
3,10712804374929E-7;
-4,79223000871361E-7;
-1,13353109954439E-6;
-1,3822534157533E-6;
-1,19853783826693E-6;
-7,90783225272191E-7;
-4,32951786045657E-7;
-2,70589456148109E-7;
-2,49051792828707E-7;
-2,04413284722328E-7;
-2,6546168947276E-8;
2,45981425669099E-7;
4,72178401077975E-7;
5,45374677549782E-7;
4,94556023176327E-7;
4,58735433858365E-7;
5,55025107987492E-7;
7,55218674272667E-7;
8,8219493802406E-7;
7,39009865858601E-7;
2,71869517983865E-7;
-3,64125882368098E-7;
-8,93458175034855E-7;
-1,0991574476616E-6;
-9,58347361304415E-7;
-6,36185950906551E-7;
-3,51030255007966E-7;
-2,20223957578982E-7;
-2,02622010799065E-7;
-1,69766806738131E-7;
-3,41966453768035E-8;
1,75668132788467E-7;
3,51302191198953E-7;
4,10568696258099E-7;
3,76406444137309E-7;
3,56478631137936E-7;
4,40387198337607E-7;
6,04176090352326E-7;
7,0844594356029E-7;
5,99367439890316E-7;
2,35309629886891E-7;
-2,62603226609267E-7;
-6,79625244134715E-7;
-8,46288318571472E-7;
-7,43388202362655E-7;
-4,97506945654405E-7;
-2,77292969148308E-7;
-1,74782297651098E-7;
-1,60722805988208E-7;
-1,38203979375427E-7;
-4,000711060067E-8;
1,14350543136466E-7;
2,45088996443124E-7;
2,91802508218337E-7;
2,72046431495614E-7;
2,65684603996333E-7;
3,37989261315506E-7;
4,68908515462221E-7;
5,52637980282442E-7;
4,73668367684338E-7;
2,0116375274565E-7;
-1,73936544361269E-7;
-4,90867605454677E-7;
-6,2238943984575E-7;
-5,52662487594808E-7;
-3,74151394619313E-7;
-2,11461767748591E-7;
-1,34107823104115E-7;
-1,23205375650664E-7;
-1,09660812665712E-7;
-4,41761873267503E-8;
6,14659623524194E-8;
1,52699518072982E-7;
1,88192634737182E-7;
1,80746189866217E-7;
1,85799292864097E-7;
2,47316383657216E-7;
3,48796604717575E-7;
4,14086312421139E-7;
3,61437202390747E-7;
1,69508755702229E-7;
-9,73361846053356E-8;
-3,25849004516439E-7;
-4,25989553263276E-7;
-3,84979823908679E-7;
-2,65404523678493E-7;
-1,53195327403771E-7;
-9,79996405703426E-8;
-8,98879025362728E-8;
-8,40458913219785E-8;
-4,68951650028699E-8;
1,64186052240046E-8;
7,32309254707003E-8;
9,87763399749812E-8;
1,01702072673271E-7;
1,16204860432434E-7;
1,67768407914858E-7;
2,43103103429746E-7;
2,91976198068022E-7;
2,62092597185546E-7;
1,40382133565344E-7;
-3,19619148487713E-8;
-1,83100336910866E-7;
-2,55455898720196E-7;
-2,39016879832605E-7;
-1,70456360009551E-7;
-1,02097312220666E-7;
-6,62319123490818E-8;
-6,05604757863398E-8;
-6,12440502656112E-8;
-4,83533126216214E-8;
-2,14096317866088E-8;
5,73220802633696E-9;
2,25425995772402E-8;
3,40669482953887E-8;
5,62334394664094E-8;
9,86878072294867E-8;
1,51007069171007E-7;
1,8538883734204E-7;
1,74960969777695E-7;
1,13779969548086E-7;
2,30605943246275E-8;
-6,10691325752453E-8;
-1,0904847196385E-7;
-1,13346379840932E-7;
-8,84334546592198E-8;
-5,7736429135327E-8;
-3,85513050434583E-8;
-3,49927746218237E-8;
-4,11206231837453E-8;
-4,87289744437295E-8;
-5,2639186013036E-8;
-5,07622753796164E-8;
-4,15525648467253E-8;
-2,3035933321761E-8;
5,18961360625608E-9;
3,93653188257898E-8;
7,16217984270431E-8;
9,3334866452404E-8;
9,93100473972552E-8;
8,96716951416182E-8;
6,86134756626105E-8;
4,1849337886697E-8;
1,5042226704372E-8;
-6,48449234079262E-9;
-1,84150397566979E-8;
-1,96564091624266E-8;
-1,46927149274616E-8;
-1,29403284143711E-8;
-2,35312721346516E-8;
-4,81908016915451E-8;
-7,7891644633424E-8;
-9,72274123721375E-8;
-9,45532413396664E-8;
-7,04934972629991E-8;
-3,76424173477169E-8;
-1,09255723446136E-8;
4,02885261366662E-9;
1,47781821063972E-8;
3,43606759317336E-8;
6,79952621765677E-8;
1,05579718455848E-7;
1,27277570871691E-7;
1,1865228661806E-7;
8,30858664645748E-8;
4,05376917559961E-8;
1,26123418035495E-8;
5,62081650532547E-9;
5,84956377742094E-9;
-8,31442335780446E-9;
-4,68954851382333E-8;
-9,77749636723168E-8;
-1,34620066707593E-7;
-1,37498774108329E-7;
-1,09186272843145E-7;
-7,29751155074797E-8;
-5,29281240524904E-8;
-5,27139755194729E-8;
-5,134268766585E-8;
-2,06896617641939E-8;
4,86706534151147E-8;
1,34820881492133E-7;
1,96826286856985E-7;
2,03618513932695E-7;
1,56882411178782E-7;
8,93727325951055E-8;
3,95470060444168E-8;
2,26699305185645E-8;
2,16354447527592E-8;
4,69200488524931E-9;
-4,49870377567639E-8;
-1,12876731843985E-7;
-1,63879744534719E-7;
-1,71405101807318E-7;
-1,39982882871356E-7;
-1,01518213787697E-7;
-8,73778078555437E-8;
-9,95484045387314E-8;
-1,0609286629372E-7;
-6,66527303464989E-8;
3,15956440657972E-8;
1,57174994518215E-7;
2,52078073809549E-7;
2,71748782852786E-7;
2,16406182252227E-7;
1,29029086338794E-7;
6,16255159736689E-8;
3,67362313594334E-8;
3,46711641092803E-8;
1,56556142555961E-8;
-4,25965358257745E-8;
-1,23762145508294E-7;
-1,85909649740236E-7;
-1,97253284074603E-7;
-1,63720303331878E-7;
-1,23960801242815E-7;
-1,15005790628479E-7;
-1,37406923061286E-7;
-1,50526480170051E-7;
-1,04338780012373E-7;
1,66561964698588E-8;
1,73445867223927E-7;
2,94567230635277E-7;
3,24798908740404E-7;
2,63117187122218E-7;
1,60424192391505E-7;
7,93125002668693E-8;
4,80970004636299E-8;
4,52133486655941E-8;
2,47448712791579E-8;
-3,98435560651595E-8;
-1,30963069132516E-7;
-2,01570217539192E-7;
-2,15983047371133E-7;
-1,812052967941E-7;
-1,40971025692881E-7;
-1,36519059012823E-7;
-1,67199639899744E-7;
-1,85675630024439E-7;
-1,345419359066E-7;
3,73013723181049E-9;
1,84394047537413E-7;
3,25757834706238E-7;
3,64460567727012E-7;
2,98428282166529E-7;
1,84446029117449E-7;
9,30629384307175E-8;
5,70214051803813E-8;
5,35071976197412E-8;
3,21289960812316E-8;
-3,68310974039792E-8;
-1,34982381496312E-7;
-2,11677141981469E-7;
-2,28486056558953E-7;
-1,93203098986849E-7;
-1,5318355915646E-7;
-1,52599544328394E-7;
-1,89803783275282E-7;
-2,12536642566261E-7;
-1,58038476381478E-7;
-7,31738385556641E-9;
1,90736420587545E-7;
3,47046072833858E-7;
3,92339634035217E-7;
3,23679755864852E-7;
2,01943891839899E-7;
1,03314086953773E-7;
6,37721572678627E-8;
5,97941587817331E-8;
3,79684643520172E-8;
-3,36551406770658E-8;
0,00933329776243173;
0,0226295128336752;
0,0163725016808938;
0,00943289574566464;
0,0121692305831783;
0,00702600343711924;
0,00563461107248295;
0,00458247798770184;
0,000840324520261999;
0,00103237575055858;
-0,0011902463555014;
-0,00199159291527208;
-0,00280672697984434;
-0,00455334117368872;
-0,0048871112780119;
-0,00585579022921873;
-0,00594114867601464;
-0,00618242402370187;
-0,00699353424561204;
-0,00792073394078605;
-0,00934902329311454;
-0,0102431069358337;
-0,0105187374858884;
-0,010108726709123;
-0,00920783025970617;
-0,0084304678182534;
-0,00783065092235492;
-0,00745771665965894;
-0,00704824112238818;
-0,00641870138867642;
-0,00567526141156102;
-0,00495812220327563;
-0,0044526626860129;
-0,0040904183938969;
-0,00366360533086374;
-0,00302645248360254;
-0,00222816081138837;
-0,00157276183276631;
-0,00136103081274378;
-0,00166527269026852;
-0,00222585784536211;
-0,00258727779824966;
-0,00240699901094124;
-0,0016573879426828;
-0,000624900894638615;
0,000316495159289492;
0,000963440885956892;
0,00137561619022606;
0,00176493621840028;
0,00227843137813635;
0,0028739003807094;
0,00337857320827987;
0,00366536224640948;
0,00378477699196242;
0,00392497073210015;
0,0042335651656487;
0,00465417655047685;
0,00492919830873948;
0,0047854438992311;
0,00416203202627984;
0,00329826610413431;
0,00260099394436174;
0,00238381470862469;
0,002671134486738;
0,00320900508230658;
0,00366522056656343;
0,00385854386751892;
0,00384568924188493;
0,00381710577030261;
0,00390615341518653;
0,00407657192758456;
0,00417497799638708;
0,00408956306191775;
0,00386628682850729;
0,00367417282292864;
0,00364563662556372;
0,00373095757438057;
0,00370132549547485;
0,00331399791085756;
0,00251553410085218;
0,00151944198723086;
0,000687885118712642;
0,000299696737633977;
0,000376301974975883;
0,000691872967097678;
0,000951259515888702;
0,000993532587996215;
0,000868929413450094;
0,000746105055121048;
0,000742896666189605;
0,000826710830280752;
0,000861262543442128;
0,000747180068073668;
0,000524717448045461;
0,000342859809263856;
0,000318034571084712;
0,000405625657550189;
0,000402929061713394;
9,51690060713858E-5;
-0,000565198674958524;
-0,0107237323210132;
-0,0246911983082306;
-0,0187065698735013;
-0,0116225461180923;
-0,0139973955029076;
-0,00853609150725237;
-0,00701213934348814;
-0,00596927222310331;
-0,0022305369860648;
-0,0023173136111169;
8,99319665874069E-5;
0,00103496997237977;
0,00186513303237116;
0,00353293199785328;
0,00382413812207511;
0,00488797615158745;
0,00516663415029174;
0,00552152344664138;
0,00617840180433287;
0,00664175777780719;
0,00746054014081688;
0,00787741196687439;
0,00802138187441472;
0,00784035232842755;
0,0073544744022508;
0,0069508933057596;
0,00655970680704609;
0,00626818987075738;
0,00594125853058836;
0,00548461459997018;
0,00497870650065935;
0,00445911403273354;
0,00403500913536654;
0,0036681488167433;
0,00326355727923282;
0,00276334380915574;
0,00218233918032627;
0,0016706151160879;
0,00136627239952136;
0,00130574843333675;
0,001371370345074;
0,00134787096960416;
0,00107679855032897;
0,00054341614745874;
-0,000116476822144744;
-0,000724738443857294;
-0,00118454928345828;
-0,00152268152675823;
-0,00184043059127361;
-0,00220798900421625;
-0,00260517320341804;
-0,00294894250222144;
-0,00317741663757554;
-0,00331493526810207;
-0,00345272933363346;
-0,00366298828133947;
-0,00391865553097973;
-0,00409371588826001;
-0,00405382691380587;
-0,00376839303734868;
-0,00335511342918382;
-0,00301554557863101;
-0,00290620751982682;
-0,00304056317020313;
-0,00329304339408059;
-0,00349807367645759;
-0,00356485318655381;
-0,0035218699413973;
-0,00346539359124531;
-0,00346344464683586;
-0,00349839619842701;
-0,00349287153345879;
-0,00339017050777791;
-0,00321391466263709;
-0,00305097480220998;
-0,00296992279746992;
-0,00294580429297068;
-0,00286086514884248;
-0,00258935009096113;
-0,00210309903154523;
-0,00151292107078127;
-0,00100802838357474;
-0,000735161884845792;
-0,000706716107577538;
-0,000804856922016237;
-0,000874340495613645;
-0,000830010546171637;
-0,000698330812146032;
-0,000569026698540237;
-0,000505291029370523;
-0,000490185021756476;
-0,000450966406588346;
-0,000334242191428316;
-0,000161577941543159;
-1,34744455055893E-5;
4,67467804018703E-5;
4,30010544671693E-5;
8,56255316157868E-5;
0,000292293707518478;
0,000689725027381993;
0,01050877022489;
0,0242034834794249;
0,0181220146999216;
0,0111242800457333;
0,013679102620646;
0,0083758714183287;
0,00692562152313604;
0,0058917252026325;
0,00216219326832794;
0,00230325289490045;
-1,76138426695456E-5;
-0,000896411466869132;
-0,00171818298237945;
-0,00342011061685135;
-0,00373194375904551;
-0,00475958401909322;
-0,00496223920626785;
-0,00527672359754365;
-0,00600785881791646;
-0,00667693407115618;
-0,00776341406124947;
-0,00839357932135444;
-0,0086080230066819;
-0,00834904984280275;
-0,00770942889241974;
-0,00716984717835478;
-0,00671081845444442;
-0,00640370576192098;
-0,00606107173998404;
-0,00555259960184433;
-0,00496927498626475;
-0,00438866466694557;
-0,00395015624115191;
-0,00360318297220223;
-0,00320795985476096;
-0,00267205850587467;
-0,00202397061070194;
-0,00147384647470782;
-0,00122257163019089;
-0,00131973563592346;
-0,00159238329946067;
-0,00173303643879051;
-0,00151345412720985;
-0,000914707631712686;
-0,000130046618755073;
0,00058868306631257;
0,00110510008336284;
0,00145857260164666;
0,00179146853318814;
0,00220211842524282;
0,00266203173841097;
0,00305539575643853;
0,00329685496666896;
0,00342040766729309;
0,00355208618023074;
0,0037907878741457;
0,0040988274819415;
0,00430383158302428;
0,00422323272278276;
0,00381655178645127;
0,00324410406873661;
0,00277810753895263;
0,00262828046049406;
0,00281105084394684;
0,00315693695453312;
0,00344434396354029;
0,00355257965219123;
0,00351978164984343;
0,00347326398696336;
0,0035021879670734;
0,00358261191907329;
0,00361257990670599;
0,0035179034665318;
0,00332949605411551;
0,00316015056728165;
0,00309820545641293;
0,00311076802555217;
0,00304588117940233;
0,00274245142905155;
0,00216531608770762;
0,0014566806681253;
0,000857350843660715;
0,000552602083032717;
0,000556710635812651;
0,000719886468301299;
0,000846470672922373;
0,000829937451674367;
0,000703788702203116;
0,000579943470871253;
0,000536563116090463;
0,000552143452210925;
0,000536567976243608;
0,000424212413310584;
0,000241839920074139;
8,8056384075627E-5;
3,98425682486041E-5;
6,7700956478286E-5;
3,77528641510284E-5;
-0,000191720050306239;
-0,000651930625569316;
-0,0105521846572568;
-0,0243116595694076;
-0,018252818437094;
-0,0112346442498103;
-0,0137474581537149;
-0,00840742580404948;
-0,00693951499065591;
-0,00590235266112412;
-0,00216949212566969;
-0,00229758296330783;
4,28501394680579E-5;
0,000936714054327212;
0,00176139386681276;
0,00345743723058861;
0,00376588810042222;
0,00480099090508107;
0,00501841835815365;
0,00534070527689631;
0,00605843050074119;
0,0066905578175047;
0,00772953956279893;
0,00832203164422167;
0,00852317998525028;
0,00827540572085207;
0,00765903809210049;
0,00713978881767321;
0,00669066678291672;
0,00638579433592639;
0,00604550722862952;
0,00554441401900967;
0,004971775436273;
0,00439947581944495;
0,00396318632357372;
0,00361412586434691;
0,0032179406774628;
0,0026859736756694;
0,00204494602199453;
0,00149869096942205;
0,00124226883379296;
0,00132480025001853;
0,00157897265284048;
0,00170525079161635;
0,00148041225029492;
0,000884954041022248;
0,000107445370547753;
-0,000605146637287301;
-0,00111845165559212;
-0,00147077564301073;
-0,0018024176547087;
-0,00221074679479054;
-0,00266786804337211;
-0,00305903304895316;
-0,00329924520818984;
-0,00342206104806669;
-0,00355306578245465;
-0,00379126614144146;
-0,00409924387515114;
-0,00430418251994391;
-0,00422220230165422;
-0,00381172363789229;
-0,00323364291761068;
-0,00276275596346967;
-0,00261182003670337;
-0,00279841308285103;
-0,00315117463132389;
-0,00344486582953485;
-0,00355617373734214;
-0,00352360540476832;
-0,00347720838339198;
-0,0035085141226895;
-0,00359322239019389;
-0,00362655905004896;
-0,00353187587451771;
-0,00334077308228049;
-0,00316977417479372;
-0,0031105748761744;
-0,0031292880479686;
-0,00306785945501432;
-0,00275792228126772;
-0,00216190881463401;
-0,00142780256457889;
-0,000807757279338764;
-0,000496794072442519;
-0,000510812079315079;
-0,000692684691592845;
-0,000836028750448166;
-0,000827856436147897;
-0,000703229503216515;
-0,000580780158894287;
-0,000543795645715197;
-0,00056962127902701;
-0,000562113182478323;
-0,000450861990631452;
-0,000264251003989727;
-0,000108060317027931;
-6,5300522334029E-5;
-0,00010444028201644;
-8,08584681952943E-5;
0,000159325357165715;
0,000650791955057214;
0,00125937187634432;
0,0017562879210745;
0,0019649279872356;
0,00187163162630297;
0,00161992765165479;
0,00139793244103543;
0,00130880498639339;
0,0013212716762182;
0,00132828487969195;
0,00125492900359036;
0,00112235012290676;
0,00101822472178687;
0,00100682115204242;
0,00106290395284163;
0,00109121483223827;
0,00101716004031768;
0,000869748040765168;
0,000780133829189417;
0,000887684001790279;
0,00122396920386251;
0,00166809513206534;
0,00201389501797013;
0,00210241865632737;
0,00192174677477246;
0,0016016018139025;
0,00131172846610821;
0,00114519578889862;
0,00107397004802069;
0,00100185077388029;
0,000861602182074839;
0,000672381556257403;
0,000513085890323147;
0,000441488843533178;
0,000434928724649496;
0,000407903834864054;
0,000293514877213381;
0,000117812297627949;
-1,63595891470352E-6;
5,99655008639664E-5;
0,000330731269451856;
0,000702237909435865;
0,000989840083905587;
0,00105128764738417;
0,000875917077033565;
0,000579659161907218;
0,000314086306088786;
0,000162156183447344;
9,86495390584392E-5;
3,75474836934093E-5;
-8,12613138301939E-5;
-0,000240822508197852;
-0,000370972291468956;
-0,000420433412201;
-0,000409592671531402;
-0,000414740715474333;
-0,000495546651788631;
-0,000628974665725257;
-0,000710672984678607;
-0,000629970328093014;
-0,000362155642084488;
-3,73561339825953E-6;
0,000281249220722813;
0,000366513587804309;
0,00024253961073102;
1,19929616178106E-5;
-0,000190983339675102;
-0,00029310410988478;
-0,000316863187223076;
-0,000338497776203169;
-0,000411262327343399;
-0,000520258073376084;
-0,000603601547860171;
-0,00061613946339237;
-0,00057599503960941;
-0,000550574291894666;
-0,000592554780377118;
-0,000681674529145283;
-0,000726062948862057;
-0,00062837280156393;
-0,000366993503466101;
-2,69522388145031E-5;
0,000247438544474254;
0,000345190152996835;
0,000257988110487038;
7,60194004957134E-5;
-8,29878677235732E-5;
-0,000154786242653425;
-0,000159142871109237;
-0,000162885709674281;
-0,000212642931306731;
-0,00029533716855189;
-0,000356797054724603;
-0,000357534988898093;
-0,000313405643080053;
-0,000283294984383414;
-0,000313162369905256;
-0,000385260177446276;
-0,000419395421166972;
-0,000330684456243216;
-0,000100329506360587;
0,000197571283019399;
0,00043738951504859;
0,000522621641031025;
0,000446150506639872;
0,000286479434631501;
0,000145957688351591;
8,04003820933308E-5;
7,26670175403714E-5;
6,48253866139594E-5;
1,65156368701481E-5;
-6,08563543213288E-5;
-0,000120319889600902;
-0,00012766620123859;
-9,6590950567107E-5;
-7,79706885350636E-5;
-0,000111455695681458;
-0,000181643254389769;
-0,000219261685336141;
-0,00015107665596078;
3,90917970077503E-5;
0,00028737011885038;
0,000485586003010692;
0,000550750614719304;
0,000476841729414692;
0,000331434642128201;
0,000202511527467521;
0,000138007225385692;
0,000123211558086135;
0,000108457710090055;
5,91949620602307E-5;
-1,47587264177771E-5;
-7,31646048474643E-5;
-8,67534444241302E-5;
-6,72426496377607E-5;
-5,80970392231846E-5;
-9,31423761613691E-5;
-0,000159192683547018;
-0,000197151387090134;
-0,000144625553988599;
1,21088589191152E-5;
0,000218629792597505;
0,000382909317298448;
0,000434438316858766;
0,000368164309542173;
0,00024150427345513;
0,000129109437950659;
7,15942748944277E-5;
5,64660298514225E-5;
4,16658096327241E-5;
-2,02354331796075E-6;
-6,62835232478324E-5;
-0,000117119742227324;
-0,000129847045478714;
-0,000114382190417475;
-0,0001073809661286;
-0,000137327302285466;
-0,000193103505954344;
-0,000225005766807671;
-0,000180637805737611;
-4,85475014221032E-5;
0,000125525484936567;
0,000264382928966822;
0,000308967380140732;
0,000255097454066446;
0,000150843851517553;
5,86079798334678E-5;
1,22796332637312E-5;
1,39480635503899E-6;
-9,13554751203941E-6;
-4,36472713804002E-5;
-9,52022552053443E-5;
-0,000135528747262987;
-0,000144138703318788;
-0,000129299882636271;
-0,000121438858678538;
-0,000144155781015297;
-0,000188224090958175;
-0,000212519770156502;
-0,000173770136838649;
-6,25874734369441E-5;
8,32219311662267E-5;
0,000199994998831144;
0,000239120164381567;
0,000197211948239122;
0,000113828667885206;
4,02217039872613E-5;
4,16845758671036E-6;
-2,93817428456428E-6;
-9,83752442062966E-6;
-3,64191164318053E-5;
-7,6992279295996E-5;
-0,000108476112249513;
-0,000114183873907193;
-0,00010087484511015;
-9,33122528011105E-5;
-0,000110657642416987;
-0,000145391934514085;
-0,000164159436524398;
-0,00013194270949457;
-4,12103217756413E-5;
7,74270236808231E-5;
0,000172565676607591;
0,000205050426647995;
0,000172220173251802;
0,000105943990225958;
4,74059527316397E-5;
1,88717856394502E-5;
1,34196423675166E-5;
8,04758572485536E-6;
-1,31177652461261E-5;
-4,55060675776698E-5;
-7,07099196897588E-5;
-7,54610658288344E-5;
-6,51536957284517E-5;
-5,94474603584927E-5;
-7,35064901234827E-5;
-0,000101345446417619;
-0,000116590565278289;
-9,16391766280353E-5;
-2,06212708750417E-5;
7,23201766764611E-5;
0,000146789821470536;
0,000172118105785828;
0,000146292431337805;
9,42870897416483E-5;
4,82645721864639E-5;
2,55549580474633E-5;
2,07469965076383E-5;
1,59741589126173E-5;
-1,04519784021635E-6;
-2,67445562678696E-5;
-4,68954747340697E-5;
-5,12844390975613E-5;
-4,40863240130271E-5;
-4,04053334091649E-5;
-5,18407549868854E-5;
-7,37786173185877E-5;
-8,6073081711548E-5;
-6,77307679797363E-5;
-1,43611673868752E-5;
5,56527626334423E-5;
0,000111713196330545;
0,000130697242730042;
0,000111164583603491;
7,19562734453878E-5;
3,72157910614805E-5;
1,98878709725553E-5;
1,59007099402443E-5;
1,19422645939315E-5;
-1,08692968988779E-6;
-2,05142336595E-5;
-3,58176816389925E-5;
-3,94916272129307E-5;
-3,46328789288805E-5;
-3,2316153107575E-5;
-4,09904694741678E-5;
-5,7258179329085E-5;
-6,64807594957613E-5;
-5,35049320208355E-5;
-1,52465656062769E-5;
3,49954332258214E-5;
7,52656938489531E-5;
8,9093458614483E-5;
7,55395116579842E-5;
4,8038785815507E-5;
2,36718147128553E-5;
1,15228468486025E-5;
8,69775298463943E-6;
5,88786489185509E-6;
-3,21172600160861E-6;
-1,67159239523071E-5;
-2,73587394183288E-5;
-3,00114871600157E-5;
-2,68253066635084E-5;
-2,53424260340914E-5;
-3,12524926683764E-5;
-4,22250684873593E-5;
-4,84444362572931E-5;
-3,98675370386516E-5;
-1,4551336815603E-5;
1,8651467554894E-5;
4,53378370326373E-5;
5,48460890933615E-5;
4,66732916590459E-5;
2,95370307811873E-5;
1,43590990000679E-5;
6,86000773841288E-6;
5,1723309522404E-6;
3,47306289937654E-6;
-2,11149963195341E-6;
-1,0381902586208E-5;
-1,69025143500393E-5;
-1,86089314394748E-5;
-1,68298846470316E-5;
-1,60409994698582E-5;
-1,95384510646392E-5;
-2,5917579442928E-5;
-2,95416849772507E-5;
-2,47921842291863E-5;
-1,07115366803057E-5;
0,00934113032660851;
0,022652289424685;
0,0164009742243331;
0,0094576981697813;
0,0121856923138168;
0,00703510947632211;
0,00564016564181216;
0,00458724807369679;
0,000844189922252568;
0,00103341479459815;
-0,00119329441220748;
-0,00199789219443813;
-0,00281407657713246;
-0,00456015793383682;
-0,00489371881877308;
-0,00586383558208778;
-0,00595170643993105;
-0,00619448812313122;
-0,00700421155787524;
-0,00792698174534787;
-0,00934952911533141;
-0,0102389020349128;
-0,0105122486223628;
-0,0101021773309577;
-0,00920221984743413;
-0,00842566649398595;
-0,00782617840458273;
-0,00745337730816013;
-0,00704417496280963;
-0,00641507276197201;
-0,00567207432168081;
-0,00495534690644946;
-0,00445040544839557;
-0,00408880237183049;
-0,00366243152457975;
-0,00302511013780917;
-0,00222614077081563;
-0,00157050131505745;
-0,00136027787321454;
-0,00166833401387293;
-0,00223399120659573;
-0,00259937876424388;
-0,00241974787081086;
-0,00166699210953686;
-0,000629264983135691;
0,000316791193757458;
0,000966094641937847;
0,00137867325472591;
0,00176824655199488;
0,00228330885676576;
0,00288139823274429;
0,00338805080653214;
0,00367478736731133;
0,00379260269938204;
0,00393183319225856;
0,00424195949416299;
0,00466593407739834;
0,00494268304999013;
0,00479504867248457;
0,00416100308562731;
0,00328320771177523;
0,0025747779536719;
0,00235452133366641;
0,00264753908655622;
0,00319576754139739;
0,00366117968110423;
0,0038591045634855;
0,00384712748473841;
0,00381926652353752;
0,00391157041416016;
0,00408717002224824;
0,0041895662491836;
0,00410452703344601;
0,00387890973383546;
0,00368544703641828;
0,0036595987302713;
0,00375052001254986;
0,0037238726742648;
0,00333077123515626;
0,00251614983197401;
0,00149875674232956;
0,000650201954716792;
0,000256959875732535;
0,000341330303836553;
0,000671407654614751;
0,000943672124063541;
0,00099237682749835;
0,00086905394289595;
0,000747352518337408;
0,000748785267246305;
0,000839867700810087;
0,000880053671403151;
0,000766718343623293;
0,000541344782386136;
0,000357851040975943;
0,000336657698369338;
0,000431656183945958;
0,000432968913155038;
0,000117945853150463;
-0,000562962243508464;
-0,0107485753179785;
-0,0247376885274054;
-0,0187597053212993;
-0,0116663089999119;
-0,0140233978590115;
-0,00854632663876147;
-0,00701450815678473;
-0,00597004578105658;
-0,00222987221927799;
-0,00231091861158995;
0,000105235258626991;
0,0010572012582288;
0,00188841074507567;
0,00355286242744212;
0,00384221354498403;
0,00491041941823059;
0,00519788960401995;
0,00555758769797726;
0,00620605987422309;
0,00664549785344341;
0,00743274356188106;
0,00782437202189864;
0,00796044022005437;
0,00778997324302581;
0,00732430588268286;
0,00693866890570847;
0,0065564248071479;
0,00626673397286686;
0,00594147533746926;
0,00549138288371999;
0,0049956213226838;
0,00448393555760185;
0,00406110934466952;
0,00369058193334932;
0,00328397614775635;
0,0027886814559148;
0,00221753711306206;
0,00171122226034164;
0,00139763791028576;
0,00131071101333217;
0,00134151258526676;
0,00129011110899163;
0,0010101835046273;
0,000488191813031375;
-0,000149744169416129;
-0,000738507511545363;
-0,00118861034383182;
-0,00152475391967716;
-0,00184066143992689;
-0,00220107742426816;
-0,00258722519081127;
-0,00292238099670487;
-0,00314939763701401;
-0,00329079489836528;
-0,00343070405519932;
-0,0036356499932302;
-0,00388071653372256;
-0,00404993658546068;
-0,00401984900807793;
-0,00376251368646495;
-0,00338630189043974;
-0,0030764651959003;
-0,00297666182489576;
-0,00309910715841699;
-0,00332849220435073;
-0,00351300816210231;
-0,00356957970691841;
-0,00352449968791656;
-0,00346606546810043;
-0,00345657995945287;
-0,0034799054663286;
-0,00346529448878444;
-0,00336100088625606;
-0,00318873815373146;
-0,00302796075523277;
-0,00294133553974263;
-0,00290614164064126;
-0,00281507683399276;
-0,00255368200463371;
-0,00209653782463622;
-0,00154477309311532;
-0,00107071743540078;
-0,000807823821438244;
-0,000767212035269294;
-0,000841643614651606;
-0,000890060905505501;
-0,000835251932706604;
-0,000701414046753651;
-0,000570081191118964;
-0,000498585339145777;
-0,000471523902721889;
-0,000422949438609278;
-0,000304536912200393;
-0,000135898283931119;
1,00397699748428E-5;
7,5977227742855E-5;
8,35508503859589E-5;
0,000132458645707276;
0,00032889245766573;
0,000696797042317871;
0,00114342292189149;
0,00151051792689136;
0,00167583811802138;
0,00162994072457741;
0,00147234221347593;
0,0013335558395576;
0,00128520911135632;
0,00130559771520907;
0,0013203345388559;
0,00127733788887805;
0,00119136331047109;
0,00112352816026141;
0,00111868861347418;
0,00115931432021202;
0,00117899166403502;
0,00112568422451384;
0,00101971021292693;
0,000952826637487207;
0,00102260234881566;
0,00125120444121659;
0,00155400604249789;
0,00178655915209237;
0,00183746832303911;
0,00169850175255458;
0,0014609252941473;
0,00124417748653971;
0,00111380347954292;
0,00105011491503607;
0,000985384025791358;
0,000872266027682471;
0,000724341925326949;
0,000597378921606903;
0,000532256296431899;
0,000513013847358076;
0,00047922267438998;
0,000383576695007529;
0,00024457177046214;
0,000145574081117053;
0,000175117576071701;
0,000353164957752637;
0,000602723400487117;
0,000792604185711122;
0,000821724126026573;
0,000682614006889005;
0,000457958524810279;
0,000255862455578399;
0,000135514291900832;
7,88966611424161E-5;
2,4548072821823E-5;
-7,05004506855087E-5;
-0,000194105968417248;
-0,00029602689955211;
-0,000339526367020323;
-0,000339224771450344;
-0,000349857790111062;
-0,000414263430807879;
-0,000515898059476321;
-0,000579765272810725;
-0,000526295000032104;
-0,000337761387963736;
-8,37427263223595E-5;
0,000117489647154103;
0,000174877409146204;
8,16407791181377E-5;
-8,79556736706056E-5;
-0,000236881605020859;
-0,000312132970607882;
-0,000330062121828313;
-0,000345980444408135;
-0,000398547608646006;
-0,000476965182803021;
-0,000536297776729301;
-0,000543750945241378;
-0,000512547069354192;
-0,000491793048631221;
-0,000519890180815829;
-0,000582084753585281;
-0,000611379684919527;
-0,000536759505770201;
-0,000342521378764719;
-9,09224828257416E-5;
0,000112396996670284;
0,000186193900017558;
0,00012447086762848;
-6,5193963558969E-6;
-0,000120304975587077;
-0,000169706676430334;
-0,000169327026559152;
-0,000168411176832822;
-0,000201336500660666;
-0,000258471761890323;
-0,000299859310933931;
-0,000296366003973449;
-0,000259741687920517;
-0,000233563900484528;
-0,000251861392948805;
-0,000301492053818356;
-0,000323025499145055;
-0,000253537180823553;
-7,9150395446873E-5;
0,000144995700149197;
0,000325444140722077;
0,000390417558553632;
0,000334729358844964;
0,000217033291199756;
0,000113776326129589;
6,66410782462088E-5;
6,27586326041089E-5;
5,8726225536468E-5;
2,4294839448548E-5;
-3,19789243847914E-5;
-7,48441555372057E-5;
-7,86194264308242E-5;
-5,36217863754211E-5;
-3,81448178385693E-5;
-6,20448819392441E-5;
-0,000113703013365884;
-0,000140869019587053;
-8,82899484354848E-5;
5,6190065950239E-5;
0,000244191833037658;
0,000393806890793287;
0,000442212606607365;
0,000384965074132706;
0,000273495818127918;
0,000174740784955394;
0,000125164138736164;
0,00011351790423249;
0,000101898483593867;
6,39281552875747E-5;
7,11620997788812E-6;
-3,77613054373942E-5;
-4,83096543916168E-5;
-3,35243494603229E-5;
-2,67507681760065E-5;
-5,39512193646723E-5;
-0,000104981022255404;
-0,000134387113493964;
-9,41676901440725E-5;
2,61868484014666E-5;
0,000184624895488589;
0,000310057230589812;
0,000348031613338801;
0,000294755521296827;
0,000194837335505669;
0,000106251462252582;
6,05361868588601E-5;
4,79337998941419E-5;
3,566313846856E-5;
9,3973192275885E-7;
-4,97406149565662E-5;
-8,98197548976293E-5;
-0,000100003610375438;
-8,80757649501136E-5;
-8,2780966686442E-5;
-0,000106469455147045;
-0,00015039935450595;
-0,000175485019999038;
-0,00014050698683068;
-3,6502338535598E-5;
0,000100366473814847;
0,000209079469266858;
0,000242963300233173;
0,000198810948126257;
0,000114861056635068;
4,07370339311231E-5;
3,38865895006907E-6;
-5,56073310040785E-6;
-1,4136930517593E-5;
-4,17929183734708E-5;
-8,29801591626483E-5;
-0,000115059058836444;
-0,000121612506217009;
-0,000109298360028057;
-0,000102595099821013;
-0,000120506055646122;
-0,000155589205286397;
-0,000174652341515468;
-0,000142746425452695;
-5,23287795843132E-5;
6,58954983995946E-5;
0,000160222503570628;
0,000191170284428931;
0,000156073350426361;
8,72909518822206E-5;
2,67448203825689E-5;
-2,83869284161702E-6;
-8,55122046188858E-6;
-1,40245192324537E-5;
-3,56333643587706E-5;
-6,86941685491745E-5;
-9,41664860694416E-5;
-9,82702081539341E-5;
-8,661571107227E-5;
-7,97473413940835E-5;
-9,35831393233515E-5;
-0,000121868100072887;
-0,00013681470568541;
-0,000109219569344126;
-3,28292873804369E-5;
6,6671972803366E-5;
0,000146134774257431;
0,000172676020006815;
0,000144129788011371;
8,74731995727526E-5;
3,75819529553049E-5;
1,33254015141468E-5;
8,79703370072841E-6;
4,39169592403614E-6;
-1,34455301657143E-5;
-4,08169023836761E-5;
-6,1964603665771E-5;
-6,55100338172807E-5;
-5,61006749422846E-5;
-5,06858569025045E-5;
-6,23663760760392E-5;
-8,59673590628044E-5;
-9,86239123368104E-5;
-7,63616820954867E-5;
-1,40943535118658E-5;
6,707074081291E-5;
0,000131771449441725;
0,000153126396204444;
0,000129421216659691;
8,27391374416745E-5;
4,15543296016105E-5;
2,12351659923256E-5;
1,69529309154703E-5;
1,2756854270639E-5;
-2,3513693309092E-6;
-2,51883636253139E-5;
-4,29726176939716E-5;
-4,65012606755292E-5;
-3,95495788107122E-5;
-3,58134617694784E-5;
-4,58469921415697E-5;
-6,54555792175551E-5;
-7,62274487900545E-5;
-5,89144207998524E-5;
-9,48324893687841E-6;
5,50928455917796E-5;
0,000106479922479053;
0,000123207952175233;
0,000103964055914585;
6,64137952946716E-5;
3,32586513533381E-5;
1,6711443548025E-5;
1,29127993283885E-5;
9,19921159162724E-6;
-3,13068249463182E-6;
-2,15397643953169E-5;
-3,59252649629692E-5;
-3,90413349997726E-5;
-3,3881137057445E-5;
-3,1221317786966E-5;
-3,93334370224762E-5;
-5,49061194072596E-5;
-6,35238948044085E-5;
-5,01760737661157E-5;
-1,17722971654737E-5;
3,84177289661837E-5;
7,8351417089096E-5;
9,13982463004643E-5;
7,659997496174E-5;
4,76679580910416E-5;
2,21417141404346E-5;
9,41410582950652E-6;
6,49117888001509E-6;
3,64289938908871E-6;
-5,78448398967615E-6;
-1,98323934500026E-5;
-3,07875788420364E-5;
-3,31484455429293E-5;
-2,92112959641179E-5;
-2,71539388412068E-5;
-3,32178898154244E-5;
-4,4879224575129E-5;
-5,12769347707514E-5;
-4,11659300878881E-5;
-1,22913947051213E-5;
2,53680231016096E-5;
5,5355043972896E-5;
6,53319266186098E-5;
5,46527218361408E-5;
3,35216297811672E-5;
1,49038201001674E-5;
5,69545958680845E-6;
3,66998535346851E-6;
1,69375579711783E-6;
-5,07616516860669E-6;
-1,51931777178886E-5;
-2,30554906220827E-5;
-2,47011367783768E-5;
-2,18097780536603E-5;
-2,02649629170287E-5;
-2,45176308757306E-5;
-3,27385878713428E-5;
-3,71990034783014E-5;
-2,9969064562638E-5;
-9,5268286435918E-6;
0,00935048202346948;
0,0226679422047221;
0,01641813982953;
0,00947134194257441;
0,0121932565491162;
0,00703737630616006;
0,00563980210912713;
0,00458635081338977;
0,000842819741500093;
0,00103015778422752;
-0,0105328975159128;
-0,024635977194153;
-0,0191953050579899;
-0,0140003489645878;
-0,0170693107759855;
-0,0128974531921741;
-0,011596757282768;
-0,0107888102462434;
-0,00785308970980178;
-0,00895913677364963;
-0,00814769540254293;
-0,00822682884905794;
-0,00768261999238092;
-0,00553031929487067;
-0,00430445029240659;
-0,00256609405718586;
-0,00188465108853105;
-0,00127126790320849;
-5,16066474833493E-5;
0,00150217582893028;
0,00366959626076216;
0,00527746165180015;
0,00605771326043963;
0,00601095232163169;
0,00553746095920781;
0,00539576627258725;
0,00559133908182076;
0,00587220076701309;
0,00567682165915714;
0,00474976622512923;
0,00345438606959698;
0,00238266705520625;
0,00205995345679919;
0,00244548445567846;
0,00304727068150264;
0,0033481612154944;
0,00319520604084628;
0,00295157313266862;
0,00312864295491704;
0,00394499449673119;
0,00509914294287459;
0,00596374252998727;
0,00606974378479445;
0,00543974918956379;
0,00454759395846869;
0,00391435671111345;
0,00368722359198512;
0,00354960954653465;
0,00301695695809181;
0,00188128159831974;
0,000423504935978273;
-0,000777339285516014;
-0,00128072900934903;
-0,00111252798996749;
-0,000714547807106721;
-0,000566576354450355;
-0,000793642998368182;
-0,00108154204710781;
-0,000966511240570903;
-0,000254068545085247;
0,000780283706120513;
0,00157608606005863;
0,00170765992880162;
0,00119662490287877;
0,000466430939487522;
-1,78371204198638E-5;
-0,000124831442730125;
-0,000141071807714027;
-0,000500994148670954;
-0,00139186157347245;
-0,00256292600921441;
-0,00349658796617329;
-0,0038003544863298;
-0,00349837994284304;
-0,00298687006168813;
-0,00269548349163282;
-0,00273676159133834;
-0,00283141271505265;
-0,00256671229723262;
-0,0017703102689071;
-0,000688485591537907;
0,000179116153670091;
0,000453317238413848;
0,000153295250107989;
-0,000344616964168404;
-0,000627569841238506;
-0,000579733463361251;
-0,000456450668239601;
-0,000643877047354405;
-0,00130817775846124;
-0,00222661058003333;
-0,00293999880818524;
-0,00310058049834962;
-0,00273017449582465;
-0,00218015867403794;
-0,00183123808552411;
-0,00178319028288948;
-0,00178913478804685;
-0,00148437627750774;
-0,00071679250451006;
0,000296073770952386;
0,00111338368443309;
0,00140105666172662;
0,00117655370411454;
0,000771959916675125;
0,000551028524641692;
0,00061551084989922;
0,000740424641252213;
0,000586131917146722;
7,0316101161282E-6;
-0,000800332557182633;
-0,00143187683051833;
-0,00158187325153741;
-0,0012694591241795;
-0,000803023385822556;
-0,00051644571266915;
-0,000497067479096952;
-0,000528425642026004;
-0,000291040100100755;
0,000348323746635603;
0,00119953984929906;
0,00187755311353639;
0,00209101192055856;
0,00185580701458904;
0,00146228268937627;
0,00122792037868909;
0,00124128549179063;
0,00130611178237896;
0,00112663344574097;
0,000576565822785078;
-0,000172340373198028;
-0,000767992535475455;
-0,00094430782752848;
-0,000717951844583821;
-0,000356936104251881;
-0,000151203543517795;
-0,000176528103546084;
-0,000245155277890904;
-8,01952627969584E-5;
0,000433723268827218;
0,00113203891492299;
0,00168181252929984;
0,00183151199830386;
0,0015953138059581;
0,00122425114504017;
0,000992311296962812;
0,000975572898407871;
0,00100447469821216;
0,000824076187787537;
0,000325907537852895;
-0,000341698390157818;
-0,000875436316313994;
-0,00104642498836171;
-0,000869182617344523;
-0,000574207750726124;
-0,000410635399352154;
-0,000443624544963195;
-0,000512326831253299;
-0,000379660095258796;
5,29816932848407E-5;
0,000644678126764084;
0,00111079390302692;
0,00123663186886908;
0,00103459768892849;
0,00071906445405549;
0,000523535788158368;
0,000512433779604567;
0,000540906351569712;
0,000391781125605351;
-2,70190213879627E-5;
-0,00058899076143789;
-0,0010361265623034;
-0,00117405830144429;
-0,00101535053832554;
-0,000755815081250253;
-0,000606868696226112;
-0,000623882733019294;
-0,000670892188580737;
-0,000547592958031071;
-0,000170858536696239;
0,000340204654453201;
0,000745502713907451;
0,000864271287872879;
0,000707252002353286;
0,00045503290420656;
0,000303861252823635;
0,000307484380206246;
0,000343847493678456;
0,000230555842829273;
-0,000109389784914209;
-0,000569561639521828;
-0,000933570835209;
-0,00103871595476957;
-0,000895706358145741;
-0,000668445833957702;
-0,000533678631218696;
-0,000537740043366735;
-0,000567418056194584;
-0,000456047811808092;
-0,000134617250359117;
0,000297796826835344;
0,000641905707778229;
0,000748012205521238;
0,000625357578131605;
0,000423684458922525;
0,000305261897993753;
0,000314170817824602;
0,000349251569869721;
0,000259905653901566;
-1,7085337096621E-5;
-0,000393593774314871;
-0,000691156650850569;
-0,000775893120173226;
-0,000656765470363402;
-0,000468558512742807;
-0,000356398384095615;
-0,000358349912224505;
-0,000381851017768609;
-0,000290775667733783;
-2,88966075066488E-5;
0,000322936303324912;
0,000602501731541777;
0,000688300886200068;
0,000588211217891748;
0,000424011971765758;
0,000327201627182004;
0,000333148417838879;
0,000359662371686662;
0,000284954797603648;
5,82720492148537E-5;
-0,000248839498251467;
-0,000492237013314935;
-0,000564096746240987;
-0,000471786216030856;
-0,00032376290859393;
-0,000236583409696899;
-0,000240836115244143;
-0,000262583428291532;
-0,000193235437808045;
1,19136966835288E-5;
0,000288434838602035;
0,000507477452382104;
0,000572902428489719;
0,000491329283469609;
0,000359362883020858;
0,000280833130675855;
0,000283292200740622;
0,000301607392729642;
0,00023985913398404;
5,8454399463609E-5;
-0,00018598425117286;
-0,000380140560666705;
-0,000439578702305875;
-0,00037024197375337;
-0,000256996166420717;
-0,000190809025299071;
-0,000195578975009994;
-0,000214040666856499;
-0,000162240696643516;
-5,78192780553602E-6;
0,000205567820341533;
0,000372744132510711;
0,00042221916030271;
0,000359457443687398;
0,000258584918256156;
0,000198756582322885;
0,000200569539783801;
0,000214099463119937;
0,00016646054163229;
2,79691967002543E-5;
-0,00015806999431345;
-0,000305794535429074;
-0,000351581541689803;
-0,000300110628128252;
-0,000215283029986452;
-0,000165337336970346;
-0,000168230473541867;
-0,000181487073200331;
-0,000142999939989994;
-2,75096911347666E-5;
0,000128199630919304;
0,000251426674082295;
0,000288636716877194;
0,000244252273783269;
0,000172511617517138;
0,000130766909311484;
0,000133490379024814;
0,000144207586167383;
0,000110369680271944;
1,10220559494061E-5;
-0,00012230184416115;
-0,000227963668560621;
-0,000260688588079358;
-0,000224037185507931;
-0,000163440279603337;
-0,000127121143751717;
-0,000127798814869837;
-0,000135989921626168;
-0,000108774091885907;
-2,89103135996656E-5;
7,82160009059557E-5;
0,000163027037391171;
0,00018950789911906;
0,000161156047389433;
0,000114785515690101;
8,86708911695239E-5;
9,19481346218958E-5;
9,99309938078149E-5;
7,78609002273558E-5;
1,24026872675325E-5;
-7,52118586317076E-5;
-0,00014451117400943;
-0,000166237179735312;
-0,000142966614754035;
-0,000104012811792051;
-8,01427920429738E-5;
-7,95003299405031E-5;
-8,38993869288329E-5;
-6,71017810478116E-5;
-1,88314520182248E-5;
4,54332695410372E-5;
9,61922616411767E-5;
0,000112627221091298;
9,7422270406165E-5;
7,22812678248323E-5;
5,89577573669873E-5;
6,19876032995391E-5;
6,69100099478844E-5;
5,43664547144233E-5;
1,76011393000316E-5;
-3,10780621949832E-5;
-6,9502793505027E-5;
-8,22508965257692E-5;
-7,10452542671604E-5;
-5,12869505837447E-5;
-3,86836709127084E-5;
-3,74269421589588E-5;
-3,90483645810284E-5;
-3,16566418408501E-5;
-1,09609279107692E-5;
1,60728985320054E-5;
3,71798343436992E-5;
4,45713678494565E-5;
4,02214059857289E-5;
3,28769534797507E-5;
3,01469784082115E-5;
3,2647383658549E-5;
3,4684232538005E-5;
3,0073144282496E-5;
1,76697626938317E-5;
2,13829900205006E-6;
-9,99656645574707E-6;
-1,51253671166817E-5;
-1,42407204958178E-5;
-1,08809126904415E-5;
-7,92050412673141E-6;
-6,17920277551246E-6;
-5,44504524075231E-6;
-6,01297545733276E-6;
-8,67239119522589E-6;
-1,31688828680222E-5;
-1,7162474419185E-5;
-1,74152738660133E-5;
-1,2567977066457E-5;
-4,84144871338546E-6;
1,42163330708967E-6;
3,54228348417693E-6;
3,24481949922815E-6;
5,46452814562202E-6;
1,37765994754378E-5;
0,00935981744860342;
0,0226663478751013;
0,0164108786360393;
0,00946367273983387;
0,0121897525237433;
0,00704157050613472;
0,00565253848237649;
0,0046033235270047;
0,000854083484150145;
0,00102398501597063;
-0,00122950944686745;
-0,0020558247155094;
-0,00287752244824191;
-0,00461145756412504;
-0,004924733915166;
-0,00587946951894001;
-0,00596287564877011;
-0,00620625901382963;
-0,00700930750554373;
-0,00791076186818046;
-0,00930281721825292;
-0,0101678466103334;
-0,010436226609723;
-0,0100406252404727;
-0,00916105832141815;
-0,00839507628705767;
-0,00779232698722933;
-0,00741459606057165;
-0,00701741538212524;
-0,0064258120487954;
-0,00573465282035812;
-0,00505951258225394;
-0,0045657456905083;
-0,0041844917136401;
-0,00372687997627727;
-0,00306962282863462;
-0,00226956822776874;
-0,00161775771548011;
-0,00139320306920229;
-0,00165752700671132;
-0,00216268793402675;
-0,00247975606612501;
-0,00228751864021328;
-0,00155778027327257;
-0,00055556697967575;
0,000369242122232886;
0,00101955808226001;
0,00143803003035072;
0,00181086222955862;
0,00227372928264221;
0,00279970806498669;
0,00324867059959096;
0,00351956937732037;
0,00366294375934536;
0,00384204721489278;
0,00417554750413431;
0,00459767429997419;
0,00486785669395686;
0,0047406663112357;
0,00416840839369844;
-0,005958140500715;
-0,0198952140278903;
-0,0138396879315499;
-0,00663690056008225;
-0,00887266936295397;
-0,00329396073918719;
-0,00170562674552637;
-0,000658940601735368;
0,003034895830093;
0,00287149057375176;
0,00518179456032842;
0,00601526272797825;
0,00672578252548813;
0,00827673453593096;
0,0084633359782364;
0,00943188336159097;
0,00960375453417171;
0,00980952721103578;
0,0102526995005111;
0,0104411502621296;
0,0109556027819249;
0,0110838888485116;
0,0109899488119081;
0,0106291642354837;
0,0100011613301339;
0,00945928232987847;
0,00890554600295358;
0,00841626193761087;
0,00786175282627855;
0,00716116201753922;
0,00640872147025288;
0,00565179280955278;
0,00501048241234329;
0,00445607037793225;
0,00389682047093947;
0,00326582605854466;
0,00255604473236837;
0,00189128845517858;
0,00139328014399449;
0,00110323261909036;
0,000929599550222185;
0,000692510971012421;
0,000260702201373702;
-0,000374183728764139;
-0,00109174875722176;
-0,00174124627121237;
-0,00225165139784063;
-0,00266419697909007;
-0,00308092756209396;
-0,00356238215726732;
-0,00407334480561243;
-0,00451451476346828;
-0,00480994776910024;
-0,00497602467692068;
-0,00510621529491041;
-0,00528685905377413;
-0,00551345471650325;
-0,00568208658502189;
-0,00566961702157558;
-0,00543951672704526;
-0,00508834192600057;
-0,00479077445971495;
-0,0046828060410759;
-0,00477227417631215;
-0,00494420030658419;
-0,00505430801441593;
-0,0050349358730835;
-0,00493135140900718;
-0,0048452931841406;
-0,00483799352623161;
-0,00487549691559169;
-0,0048601627982718;
-0,00471830116025304;
-0,00446647559651457;
-0,00419781723751646;
-0,00399860466519383;
-0,00386614518749619;
-0,00370044160200578;
-0,00338190918179627;
-0,00287502883274969;
-0,00227340626252384;
-0,00174636878962247;
-0,00142548098587616;
-0,00131770990062428;
-0,0013111281907745;
-0,00126588571593586;
-0,00111692979227078;
-0,000908740518814793;
-0,000739941106065555;
-0,000669008203454855;
-0,000661417102098298;
-0,000620709715278658;
-0,000473921776346391;
-0,000236057611572868;
3,18355906793824E-6;
0,000160366244025552;
0,000238002471465035;
0,000332833500332682;
0,000560914986212839;
0,00095764176607694;
0,001434296363599;
0,00182943776244226;
0,00201800975329099;
0,00199461630790111;
0,00186772123426591;
0,00177205035175787;
0,00177006256419749;
0,00181903965713003;
0,00182474830577708;
0,00173215503601364;
0,00157596836309764;
0,00145040710604401;
0,00142685940014461;
0,00149186184943513;
0,00155984370866656;
0,0015508465730105;
0,00146703071540808;
0,00140080247125151;
0,00146333377676502;
0,00168911468146801;
0,00199446858047265;
0,00222651045191294;
0,00226701665535229;
0,00211152613387779;
0,0018635550722578;
0,00165109653464789;
0,00153302621968215;
0,00146819215906217;
0,00136685253868513;
0,00117709005794674;
0,000932694891819998;
0,000724078108964149;
0,000619707759188781;
0,000607037135837616;
0,000604618300774806;
0,00053598699308592;
0,000402408545028505;
0,00029076639687001;
0,000305995134436654;
0,000480802288767431;
0,000736424449246245;
0,000928838554188006;
0,000946745566236056;
0,00078604056830181;
0,000544132132751886;
0,000341084095318651;
0,000231504186831355;
0,000175749742504986;
8,87560630607912E-5;
-7,83979006540026E-5;
-0,000293520121738688;
-0,00047100819753091;
-0,000546114784625558;
-0,000530700263003024;
-0,000501827179610339;
-0,000532155544229519;
-0,000621393746090596;
-0,000688719123173598;
-0,000636089465796538;
-0,000432891329083943;
-0,000152747126767235;
6,97227845692011E-5;
0,000130538835471084;
2,58831262234119E-5;
-0,000153405605801868;
-0,00029566138717332;
-0,0003506412132949;
-0,000356137482518947;
-0,000392044720834207;
-0,000504032622619344;
-0,000661662698822093;
-0,000784528889759618;
-0,000811851299406494;
-0,000754648555950213;
-0,000685094983446703;
-0,000671507680033973;
-0,000714300027987505;
-0,000738766906806304;
-0,000653916857223161;
-0,00043118643246242;
-0,000138681259312343;
9,89423650203145E-5;
0,0001854787349675;
0,000117548849922055;
-2,06731466771347E-5;
-0,000126009995786629;
-0,000152438140153957;
-0,000135493931128263;
-0,000149431978651077;
-0,000236387452096931;
-0,000367678838695044;
-0,000468260065593511;
-0,000481397314263361;
-0,000417093316086542;
-0,000342241057794433;
-0,000320396428985735;
-0,000352425073304589;
-0,000369693556154484;
-0,000288299298836422;
-8,1681340826587E-5;
0,000187777087307244;
0,000405671456580672;
0,000483791455986065;
0,000419263043938104;
0,000289549588720234;
0,000189314802041072;
0,000160466456522123;
0,000169946168033682;
0,000149360711526181;
6,02006661644402E-5;
-7,06859859675571E-5;
-0,000173775967265909;
-0,000196495906355447;
-0,000147811329012879;
-8,91926341927318E-5;
-7,92656613584537E-5;
-0,000119243527161082;
-0,000146552568917318;
-8,44235360690758E-5;
9,16557243787502E-5;
0,00032499979543272;
0,000511436656081913;
0,000570711849843631;
0,000500397179849706;
0,000371198326209995;
0,000269264233127131;
0,000232431901633193;
0,000230172655661371;
0,000199960862312023;
0,000106846301483909;
-2,42809426532305E-5;
-0,000129560190042986;
-0,000160693951930272;
-0,000125683542961734;
-8,06081822027328E-5;
-7,91600311599815E-5;
-0,000122868815503581;
-0,000155180896566912;
-0,000106448470402986;
4,57326690993054E-5;
0,00025022663643558;
0,000412889713838614;
0,000461240195049029;
0,000393209383310226;
0,000272777107617865;
0,000177676390437267;
0,000141750194139146;
0,000136990350310356;
0,000106647394208901;
1,92153578815397E-5;
-0,000102453687462984;
-0,000200198220242914;
-0,000230030126268156;
-0,000199057323923237;
-0,000158064663279781;
-0,000155868326822071;
-0,000194270940431728;
-0,000222603206088787;
-0,000178208860796013;
-4,07920035038888E-5;
0,00947731148360914;
0,0229211211532709;
0,0167095378261086;
0,00971144175272768;
0,012342824066716;
0,00711777789047035;
0,00569769719787727;
0,00464444852869311;
0,000877582930104613;
0,000993128972991593;
-0,00133693182357523;
-0,00222401122651878;
-0,00306335522692069;
-0,00477890891946125;
-0,00507202886601129;
-0,00603457600374043;
-0,00615036360320375;
-0,00641359194230658;
-0,00718222066323843;
-0,00798422559597802;
-0,00924523393158485;
-0,0100050358314433;
-0,0102371248022671;
-0,0098757749282291;
-0,00906461212895047;
-0,00835630627379967;
-0,00777851239949684;
-0,00740364991274092;
-0,00701399035845209;
-0,00645100405828675;
-0,00580199616918313;
-0,00515997516124656;
-0,00467461475863786;
-0,00428288473848289;
-0,00381768448956275;
-0,00317269652874855;
-0,00239929491597811;
-0,00176184836843042;
-0,00151162179296026;
-0,00170460729198846;
-0,00211688091348313;
-0,00235907479688898;
-0,00213948505900004;
-0,00143166996085895;
-0,000476982678300154;
0,000404908238747588;
0,00103358148376508;
0,00144805054081179;
0,0018197862516239;
0,00227387548734566;
0,0027850347981976;
0,00322245216968667;
0,00349079521830906;
0,00363591114869554;
0,00381004872884061;
0,00412584841234518;
0,0045246798881831;
0,00478353129326668;
0,00467261789372121;
0,00414549502333592;
0,00341040103935449;
0,00281649020216352;
0,0026330533964223;
0,00288354857463162;
0,00335343379547268;
0,00375777987919607;
0,00393509601044316;
0,00392375223451336;
0,00387873371070535;
0,00391432584738225;
0,00400931539996618;
0,00404728775907629;
0,00394442397064451;
0,00374273530602347;
0,00357985982316369;
0,00355747972140171;
0,00362359621759966;
0,00357924858542769;
0,00321935317107019;
0,00250312510616076;
0,00161733938566974;
0,000874368573810466;
0,000514833549356279;
0,000559424646501796;
0,000816377575359297;
0,00103125416379332;
0,00105991152386312;
0,000936448951022207;
0,000798735938434519;
0,000748208474832987;
0,000765532547637623;
0,000746677532067881;
0,000616702009886301;
0,000412564304706278;
0,000256098578141016;
0,000236996296346086;
0,000308366490389697;
0,000292947532735814;
8,26784762880423E-6;
-0,000582236666034115;
-0,0106468462907329;
-0,0245387855418548;
-0,0185295874316511;
-0,011472499650189;
-0,0138966946735724;
-0,00847252006908567;
-0,00695941721021653;
-0,0059151786768755;
-0,00218927741896033;
-0,00231702167141115;
3,26919615973153E-5;
0,000931473999383397;
0,00174775402410861;
0,00343134099591372;
0,00374479224861822;
0,00481432881846369;
0,00507989857598729;
0,00542429729468327;
0,00610063689824459;
0,00662282424428603;
0,00752077233475826;
0,00800143835133884;
0,00816647357012981;
0,00796339547291322;
0,00743687196563885;
0,00700307897934917;
0,006603696257783;
0,00631388297039812;
0,00597616061260518;
0,00548457426499538;
0,00492955980026364;
0,00437044023185284;
0,00393438997238288;
0,00358100151171006;
0,0031957177188491;
0,00270110205571982;
0,00210980724734756;
0,00158958386489731;
0,00130134814860396;
0,00128951293371617;
0,00142073139430609;
0,00145020011293806;
0,00119686163220769;
0,000645737631843376;
-4,7042351020536E-5;
-0,000679408290377702;
-0,00114520302590252;
-0,00148151169621981;
-0,00180832500557917;
-0,00220542160900453;
-0,00264409851427957;
-0,00302134411434673;
-0,00326012552351835;
-0,0033864647803141;
-0,00350784911509258;
-0,00371283562086108;
-0,0039764615699004;
-0,00415839016151625;
-0,00410559265125648;
-0,00378082110535198;
-0,00331440751322291;
-0,00293185325178699;
-0,00280797663461596;
-0,00295635827082601;
-0,00323489679639735;
-0,00345870654510801;
-0,00352966250500286;
-0,00348490734195136;
-0,00343603897424071;
-0,00345879201844532;
-0,0035283720939858;
-0,00355087806893838;
-0,00345706182863916;
-0,00327179920960547;
-0,00309519854797076;
-0,00300930188709422;
-0,00299114781429462;
-0,00291167827145369;
-0,00263017904045572;
-0,00211304215435292;
-0,00148098158960025;
-0,000942125718992031;
-0,00065764644925493;
-0,000639948197689402;
-0,00075808242155456;
-0,00084163827980401;
-0,000799927189832158;
-0,000666554761174815;
-0,000543534869055541;
-0,000500096024411676;
-0,000513367525924585;
-0,000497207007729021;
-0,000388035735978746;
-0,000208297442042177;
-4,90121318909E-5;
1,56488346038325E-5;
7,72108997910056E-6;
4,61556925617334E-5;
0,00026024764924379;
0,000681076102909334;
0,00119857887999913;
0,00162294845044154;
0,00180750209868198;
0,00174159675153353;
0,00154553452796776;
0,00137563975784614;
0,00131550498221816;
0,00133536073031073;
0,00134299730975636;
0,00127589327716954;
0,00115516891732544;
0,00105936753818802;
0,00104649650725046;
0,00109651156138907;
0,00112731077668659;
0,001072325992333;
0,000952400677526858;
0,00087617139784172;
0,000961338143480002;
0,00123621756318968;
0,00160102334916698;
0,00188376051416762;
0,00195169323575391;
0,00179547619317527;
0,00152441135001291;
0,00128040962610425;
0,00113954303312461;
0,00107529937564691;
0,00100461071056133;
0,000871062894835358;
0,000693585844475442;
0,00054280277476658;
0,000470794114917067;
0,00045938835322075;
0,000434708416712636;
0,000337084963385705;
0,000185637188596987;
7,83800226834555E-5;
0,000121200082099091;
0,000339297018373157;
0,000642540829044644;
0,000875949639216635;
0,00092000170666999;
0,000766202346620121;
0,000512709338987388;
0,000286979865463103;
0,000157373353925882;
0,000100186736476952;
4,09184904728129E-5;
-7,11912963408467E-5;
-0,000219578462792246;
-0,000341511521405188;
-0,000390846738170121;
-0,000384130449068127;
-0,000387476795345362;
-0,000454093088604911;
-0,000566739289274304;
-0,000637849319486087;
-0,000573076852341723;
-0,000350298266701061;
-5,03458294073843E-5;
0,000188202462899207;
0,000258545256551687;
0,00015296542897297;
-4,11690010390794E-5;
-0,00021036701646487;
-0,000293721207475531;
-0,00031223441841687;
-0,000332143792698263;
-0,000398716939224385;
-0,000497574654563012;
-0,000573452944191454;
-0,000585788591878376;
-0,000549463258761613;
-0,000523065299111821;
-0,0005535462711248;
-0,000625404954309543;
-0,000660996650633455;
-0,00057689981444746;
-0,000353779671543197;
-6,34080211231755E-5;
0,00017148055774659;
0,000256383870688163;
0,000184454344160918;
3,28747985355709E-5;
-9,80810418767188E-5;
-0,000154506010562164;
-0,000154719195756173;
-0,0001569634579662;
-0,000201138076796525;
-0,000274786287123393;
-0,00032958049407825;
-0,000330102549099879;
-0,000289514581295029;
-0,000259150644303082;
-0,000279943447723117;
-0,000337971370228902;
-0,000364919268691271;
-0,000287619952079882;
-8,92583400736914E-5;
0,000167105437182668;
0,00037385625665326;
0,000448228857529535;
0,000384271651968071;
0,000249591060699255;
0,000132010406258967;
7,88589566715158E-5;
7,43868059009909E-5;
6,79377425091424E-5;
2,47300279034677E-5;
-4,45271608193449E-5;
-9,79736713606402E-5;
-0,000104976279759074;
-7,70374372658657E-5;
-5,86513263674868E-5;
-8,51003398831892E-5;
-0,00014397040940225;
-0,000175730693485177;
-0,000116844763895929;
4,71584354438482E-5;
0,000261427260226329;
0,000432557827896231;
0,000488799856367957;
0,000425027032427184;
0,000299838826458506;
0,000189352567079094;
0,000134692113946242;
0,000122469601953381;
0,000109093156075238;
6,45461969555806E-5;
-2,1036869956085E-6;
-5,50407363878383E-5;
-6,81063514952455E-5;
-5,12747368053621E-5;
-4,26999605178482E-5;
-7,24547189634282E-5;
-0,000129597543249333;
-0,000162842747622691;
-0,000117664969010772;
1,820521851417E-5;
0,000197549755155004;
0,000340179294219902;
0,000384567994491436;
0,000326320263789014;
0,000215614950365414;
0,000117637616063742;
6,76925005473885E-5;
5,45332639973765E-5;
4,10831015705798E-5;
1,71985876334151E-6;
-5,60221487444907E-5;
-0,000101931853727729;
-0,000114000491658682;
-0,000100803543297674;
-9,46599657788933E-5;
-0,000120869582893357;
-0,000169903681174599;
-0,000198140418642253;
-0,000159404509032299;
-4,34638757455427E-5;
0,000109520334460466;
0,00023156480114772;
0,000270577280012686;
0,000222823291975847;
0,000130694410046142;
4,92716035565858E-5;
8,46780852274093E-6;
-1,01567667415978E-6;
-1,02722378643563E-5;
-4,08805170546287E-5;
-8,67033579286935E-5;
-0,000122662012477424;
-0,000130542562179106;
-0,000117627378415834;
-0,000110884314926815;
-0,000131251874323768;
-0,000170520720578824;
-0,000192113230549157;
-0,000157508796148934;
-5,83250726633626E-5;
7,17692307717705E-5;
0,000175996365596933;
0,000210919450510394;
0,000173417009606128;
9,87548865017404E-5;
3,2765504767627E-5;
4,23278650161504E-7;
-5,79796409983402E-6;
-1,15250860721636E-5;
-3,4631415439632E-5;
-7,02296046852425E-5;
-9,78914296122178E-5;
-0,000102834697511447;
-9,11456030030459E-5;
-8,49140000039514E-5;
-0,000101115893367591;
-0,000132756204229705;
-0,000149674242849523;
-0,000120305727694665;
-3,79297143750754E-5;
6,9715004975709E-5;
0,000156060315347304;
0,000185551375295305;
0,000155633318889121;
9,51049147194203E-5;
4,14011166424904E-5;
1,50079911509831E-5;
9,99869240724666E-6;
5,69971171223747E-6;
-1,23954625599221E-5;
-4,05101802813752E-5;
-6,23990827905637E-5;
-6,63616239117129E-5;
-5,73902285971145E-5;
-5,31675237954717E-5;
-6,71025870334494E-5;
-9,33137745848976E-5;
-0,000107444649942059;
-8,42078692557981E-5;
-1,83683630112806E-5;
6,77021872017619E-5;
0,000136658016782616;
0,000160059324775133;
0,000135865224953299;
8,70464696468229E-5;
4,34682060271796E-5;
2,15633882843688E-5;
1,68298135608431E-5;
1,30396995497601E-5;
-1,2849060000566E-6;
-2,33516263962437E-5;
-4,06521036646571E-5;
-4,42359164292016E-5;
-3,81092209986514E-5;
-3,60109475150215E-5;
-4,81713651490621E-5;
-6,97269975494133E-5;
-8,15340782759569E-5;
-6,39279572108411E-5;
-1,29961775175566E-5;
5,37031353980001E-5;
0,00010708248962295;
0,000125068483473802;
0,000106079399999881;
6,7873995756146E-5;
3,35466738713534E-5;
1,58970072186287E-5;
1,16775621635014E-5;
8,61435484383412E-6;
-2,07128713631172E-6;
-1,84532669737091E-5;
-3,13348449491871E-5;
-3,42001828744793E-5;
-3,01749562632112E-5;
-2,95006601254872E-5;
-3,96005125021358E-5;
-5,65354179310077E-5;
-6,58043027773948E-5;
-5,27368469468327E-5;
-1,45879225570201E-5;
3,5364686227535E-5;
7,53655093340484E-5;
8,89894185894617E-5;
7,50622267702733E-5;
4,67226768134312E-5;
2,10621028909617E-5;
7,65139303003339E-6;
4,33841357331427E-6;
2,33506483822016E-6;
-4,75148725849864E-6;
-1,57487543065517E-5;
-2,43662442627217E-5;
-2,622196818845E-5;
-2,36609467987766E-5;
-2,38498081222046E-5;
-3,1754821454482E-5;
-4,42676631221367E-5;
-5,09840342712024E-5;
-4,16281931892977E-5;
-1,44740032041654E-5;
2,09743909110807E-5;
4,94138944074772E-5;
5,93867665792049E-5;
5,00792434995151E-5;
3,05743309542588E-5;
1,26914454021448E-5;
3,15981736116616E-6;
7,74762250446183E-7;
-2,06552599377652E-7;
-4,08647915513102E-6;
-1,0339433604591E-5;
-1,51984056403401E-5;
-1,61313373799745E-5;
-1,47962067192365E-5;
-1,56817388273263E-5;
-2,16246233181609E-5;
-3,02557775263924E-5;
-3,47504250049696E-5;
-2,86609492388693E-5;
-1,114057037841E-5;
1,16021964078816E-5;
2,98877725662428E-5;
3,65848755157471E-5;
3,11963844507145E-5;
1,92813324080999E-5;
8,07608859775621E-6;
1,83370065222487E-6;
1,59771393607285E-7;
-5,58515687172737E-8;
-1,30224108575858E-6;
-3,60180386002438E-6;
-5,35393946946984E-6;
-5,61202952397631E-6;
-5,43528375140077E-6;
-7,0055409266324E-6;
-1,13347526611494E-5;
-1,67058221200461E-5;
-1,93888961929656E-5;
-1,62352104404622E-5;
-7,1480671496772E-6;
4,51151565052484E-6;
1,39120381029057E-5;
1,76493906892701E-5;
1,55016897727757E-5;
9,99985383492684E-6;
4,43979285883456E-6;
9,39694320700718E-7;
-2,11553214741393E-7;
1,24656222058342E-7;
1,01381120921665E-6;
1,97580056818066E-6;
2,77458787719739E-6;
3,01520682109886E-6;
2,15418211997972E-6;
-2,78427969621208E-8;
-3,00010753427374E-6;
-5,61547871890725E-6;
-6,78908884702676E-6;
-6,1807866213794E-6;
-4,32542225492163E-6;
-2,15332784182841E-6;
-3,67583254088031E-7;
7,98945142400455E-7;
1,36063908841812E-6;
1,27885121570113E-6;
5,03566435291182E-7;
-6,65677157333361E-7;
-1,37328815765614E-6;
-5,86172623616692E-7;
2,07633257634366E-6;
5,75830182016906E-6;
8,68939164289717E-6;
9,35631698241631E-6;
7,65411862896608E-6;
5,00901291893791E-6;
3,23587804070536E-6;
2,98859526848535E-6;
3,12174715299515E-6;
1,61768343905796E-6;
-2,58181095708773E-6;
-8,36059908510502E-6;
-1,29555851605521E-5;
-1,39396943976739E-5;
-1,10983628745827E-5;
-6,61882667064005E-6;
-3,35097977915086E-6;
-2,52296412214281E-6;
-2,81830544812822E-6;
-1,63339824352646E-6;
2,50817714054007E-6;
8,44868124093192E-6;
1,3158768640559E-5;
1,4209961874246E-5;
1,18649108204161E-5;
8,90639528981286E-6;
8,19844417458946E-6;
9,97311029569178E-6;
1,12341849000874E-5;
8,01778604682676E-6;
-1,15943943057218E-6;
-1,34859943146107E-5;
-2,33369888529022E-5;
-2,60917867524344E-5;
-2,13686400330046E-5;
-1,31197780810831E-5;
-6,49725539196513E-6;
-3,99109371603493E-6;
-3,91904819870551E-6;
-2,40080306603739E-6;
2,93640575911441E-6;
1,06994479653786E-5;
1,68487755090246E-5;
1,82241428232175E-5;
1,53912770916442E-5;
1,22281082021901E-5;
1,24360680850334E-5;
1,58913742192491E-5;
1,809157418136E-5;
1,34993574109028E-5;
2,94757883463202E-7;
-1,73336750515831E-5;
-3,14464924794586E-5;
-3,56515719764988E-5;
-2,94299782598501E-5;
-1,81522592109135E-5;
-8,8226153306225E-6;
-4,95209800564065E-6;
-4,57752153231455E-6;
-2,80619809486703E-6;
3,4511217198315E-6;
1,26249608837999E-5;
1,98885050793134E-5;
2,15139311787206E-5;
1,83117249506635E-5;
1,50203472066704E-5;
1,59892817822401E-5;
2,07993061862405E-5;
2,37519525962847E-5;
1,80713762242182E-5;
1,68004139667517E-6;
-2,01427712877395E-5;
-3,7634618803511E-5;
-4,30109003289772E-5;
-3,56426767447331E-5;
-2,20081543205314E-5;
-1,05602034017821E-5;
-5,61451018437236E-6;
-5,00200457072804E-6;
-3,05356802193005E-6;
3,87557301585807E-6;
1,40915213321518E-5;
2,21781797908019E-5;
2,39858234553408E-5;
2,05173427639993E-5;
1,71628685112569E-5;
1,87520067513595E-5;
2,46248680960233E-5;
2,81639441957315E-5;
2,16531231214842E-5;
2,8272407661479E-6;
-2,2199121652668E-5;
-4,2278432850504E-5;
-4,85711304676432E-5;
-4,03627605780259E-5;
-2,4963229247697E-5;
-1,19154197592693E-5;
-6,14687189433476E-6;
-5,34843422457301E-6;
-3,28331871063484E-6;
4,10593044936406E-6;
1,50462117214282E-5;
2,37063786567931E-5;
2,56428525788323E-5;
2,20043395035149E-5;
1,86483625319132E-5;
2,0737089003992E-5;
2,74192378496236E-5;
3,14033833128433E-5;
2,42964823515767E-5;
3,70708125430667E-6;
-2,36407969283048E-5;
-4,56011651833712E-5;
-5,25774123447381E-5;
-4,37914507793394E-5;
-2,71419508457433E-5;
-1,29458437895569E-5;
-6,57226888038759E-6;
-5,62906905658888E-6;
-3,49475768355213E-6;
4,17523227692075E-6;
1,55675519699505E-5;
2,45878549526783E-5;
2,66101935749431E-5;
2,28880262443475E-5;
1,95852620762806E-5;
2,20682606078604E-5;
2,93383371801275E-5;
3,36451079939481E-5;
2,61488982937185E-5;
4,38525308007864E-6;
-2,45101620147013E-5;
-4,7731009111072E-5;
-5,51840610363242E-5;
-4,60469629094187E-5;
-2,85953718618614E-5;
-1,36445952997358E-5;
-6,85641039556521E-6;
-5,8045772478043E-6;
-3,64161874712219E-6;
4,15485268311348E-6;
1,57644142147594E-5;
2,49604594131808E-5;
2,70306822202191E-5;
2,3297461779832E-5;
2,00919097610789E-5;
2,2874151309316E-5;
3,05370237298143E-5;
3,50577888439954E-5;
2,73494800725399E-5;
4,92043492436776E-6;
-2,48534792807558E-5;
-4,87981632183182E-5;
-5,65490639187565E-5;
-4,72565598514538E-5;
-2,939066165643E-5;
-1,40270810047498E-5;
-6,99126210759306E-6;
-5,86427080231933E-6;
-3,70873281610919E-6;
4,08148013168598E-6;
1,57067112909155E-5;
2,49196312176103E-5;
2,70032551273244E-5;
2,33179484588854E-5;
2,02431121445393E-5;
2,32388152699097E-5;
3,11235426453362E-5;
3,5762364698353E-5;
2,79915646752025E-5;
5,33112834110828E-6;
-2,47497774856497E-5;
-4,89595453595631E-5;
-5,68549359226111E-5;
-4,75738354194203E-5;
-2,96250190167882E-5;
-1,41416647659682E-5;
-7,00249968003455E-6;
-5,83037260205249E-6;
-3,71323324355014E-6;
3,95879411857318E-6;
1,54298048804725E-5;
2,45254155108073E-5;
2,65924467281992E-5;
2,30028592065119E-5;
2,00841136857411E-5;
2,32176563867291E-5;
3,11772201387642E-5;
3,5851396667089E-5;
2,81436812453142E-5;
5,61818746143508E-6;
-2,42868513035819E-5;
-4,83735276795899E-5;
-5,62824307332821E-5;
-4,715166573775E-5;
-2,9398089248621E-5;
-1,40416544688199E-5;
-6,9211593834075E-6;
-5,72944135557775E-6;
-3,67583870870429E-6;
3,78622652111245E-6;
1,4963170848761E-5;
2,38309166980631E-5;
2,58565446836883E-5;
2,24013969413832E-5;
1,96578527223553E-5;
2,28640677846217E-5;
3,07744149832449E-5;
3,54142863202708E-5;
2,78740103454508E-5;
5,78851126936661E-6;
-2,35383712924028E-5;
-4,7177900736832E-5;
-5,49894465199667E-5;
-4,61221283106654E-5;
-2,87929379316654E-5;
-1,37673826005883E-5;
-6,76682849703752E-6;
-5,57664974388159E-6;
-3,60622375988706E-6;
3,57249734254832E-6;
1,43428650616819E-5;
2,2893697323615E-5;
2,48578946460878E-5;
2,1567788470597E-5;
1,90130462840421E-5;
2,22364369958307E-5;
2,99944705023352E-5;
3,45422051255081E-5;
2,72543332052525E-5;
5,85802465254019E-6;
-2,25618601207893E-5;
-4,54887564180126E-5;
-5,31107368905472E-5;
-4,45969778835141E-5;
-2,78772391101428E-5;
-1,33480699265857E-5;
-6,55019334587574E-6;
-5,37899541613541E-6;
-3,50680917223581E-6;
3,33132827085034E-6;
1,36067944071029E-5;
2,17706272951387E-5;
2,36573289925045E-5;
2,05552977345714E-5;
1,81978124300774E-5;
2,1391440282124E-5;
2,89127669300235E-5;
3,33209434891605E-5;
2,63526434865137E-5;
5,84402366509141E-6;
-2,14065858234856E-5;
-4,34085612527242E-5;
-5,0766054956773E-5;
-4,26757209573807E-5;
-2,67112252354995E-5;
-1,28096656161108E-5;
-6,28075792517734E-6;
-5,1428911075107E-6;
-3,38021397689764E-6;
3,07420686576198E-6;
1,27877522076914E-5;
2,05111845321573E-5;
2,23076943854196E-5;
1,94099216945821E-5;
1,72535573600278E-5;
2,03781848333331E-5;
2,75951459422187E-5;
3,18256213753894E-5;
2,52280890535688E-5;
5,76024329562453E-6;
-2,01184340970839E-5;
-4,10308999965E-5;
-4,80646218772744E-5;
-4,04497025465151E-5;
-2,53513188469428E-5;
-1,21780254602328E-5;
-5,96968870866901E-6;
-4,8767337000245E-6;
-3,23149055748697E-6;
2,80851810236227E-6;
1,19119536877323E-5;
1,91563628463358E-5;
2,08530248420044E-5;
1,81697871293809E-5;
1,62145642489447E-5;
1,92380243735787E-5;
2,60980290245406E-5;
3,01210558183975E-5;
2,39314512209126E-5;
5,61731557220217E-6;
-1,87395378369371E-5;
-3,84401532752951E-5;
-4,51047118092713E-5;
-3,80014135482841E-5;
-2,38490988371922E-5;
-1,14776139262811E-5;
-5,6283154364757E-6;
-4,58927247658657E-6;
-3,06638788176094E-6;
2,53947179533801E-6;
1,10011660108711E-5;
1,774095798974E-5;
1,93309142908474E-5;
1,68674961492659E-5;
1,51103193845086E-5;
1,80069335780449E-5;
2,44708599829104E-5;
2,82642467634552E-5;
2,25075413445888E-5;
5,42488842973678E-6;
-1,7306528652418E-5;
-3,57100391407149E-5;
-4,19722877422959E-5;
-3,54030439224243E-5;
-2,22496806592914E-5;
-1,07297364675751E-5;
-5,266343876893E-6;
-4,28787529129989E-6;
-2,88964417628013E-6;
2,27182911975394E-6;
1,00745141902131E-5;
1,62954263233957E-5;
1,77743052325123E-5;
1,55317777957681E-5;
1,39670339482957E-5;
1,67169590704146E-5;
2,27575608569239E-5;
2,63058006018167E-5;
2,09964194550491E-5;
5,1924750450159E-6;
-1,5850129836196E-5;
-3,29035800418122E-5;
-3,87411276997447E-5;
-3,27165486844215E-5;
-2,05916173391006E-5;
-9,95231282567449E-6;
-4,89161388509651E-6;
-3,9783428288428E-6;
-2,70484055220905E-6;
2,01009747927173E-6;
9,14877967941814E-6;
1,48462343774225E-5;
1,62118042660361E-5;
1,41876927028225E-5;
1,28077266440409E-5;
1,53962890878611E-5;
2,0996649741383E-5;
2,42900445438863E-5;
1,94333782019267E-5;
4,92909315135159E-6;
-1,43959592331434E-5;
-3,00742408668175E-5;
-3,5474087717017E-5;
-2,99947890265391E-5;
-1,89078020357891E-5;
-9,16058298693842E-6;
-4,51071475333736E-6;
-3,66552359874811E-6;
-2,51498476864917E-6;
1,75805247143831E-6;
8,2380579081813E-6;
1,34156442662798E-5;
1,46674963333665E-5;
1,28563888357884E-5;
1,1651945817958E-5;
1,4069002793412E-5;
1,92210980451471E-5;
2,22549587944762E-5;
1,78487487988501E-5;
4,64277171322671E-6;
-1,29654237171417E-5;
-2,7267151577763E-5;
-3,22243868336065E-5;
-2,72826503052333E-5;
-1,72262991992206E-5;
-8,3676916154333E-6;
-4,12944555952126E-6;
-3,35372280852328E-6;
-2,32288712810525E-6;
1,51849082366814E-6;
7,35372145737619E-6;
1,20218180229734E-5;
1,31610843026476E-5;
1,15552005126468E-5;
1,05158315961442E-5;
1,27551986217789E-5;
1,74585816895068E-5;
2,0232497937861E-5;
1,62681356914806E-5;
4,34046635536198E-6;
-1,15762045354238E-5;
-2,45198820962318E-5;
-2,90364678804193E-5;
-2,46177408801127E-5;
-1,55707626750449E-5;
-7,58486215033351E-6;
-3,75287533669594E-6;
-3,04674184634204E-6;
-2,13112988751029E-6;
1,29338347281841E-6;
6,50472781382351E-6;
1,06792713334125E-5;
1,17083780714219E-5;
1,02980921537847E-5;
9,41252468267039E-6;
1,14714351980801E-5;
1,57320333319681E-5;
1,82492121683113E-5;
1,47129208417573E-5;
4,02825590942724E-6;
-1,024248303533E-5;
-2,18630218989351E-5;
-2,59466717523021E-5;
-2,2030910320682E-5;
-1,39606836613645E-5;
-6,82142064636892E-6;
-3,38525469094576E-6;
-2,74776388734452E-6;
-1,94194119690954E-6;
1,08410878082851E-6;
5,69801383619536E-6;
9,39937656301582E-6;
1,03218258970639E-5;
9,09612211605871E-6;
8,35256838134E-6;
1,02311864067501E-5;
1,40601978166918E-5;
1,63268480493556E-5;
1,32007457473668E-5;
3,71148458191947E-6;
-8,97522161538178E-6;
-1,93207779013733E-5;
-2,29839373901434E-5;
-1,95468215401037E-5;
-1,24117102429395E-5;
-6,0848938216201E-6;
-3,03001905235342E-6;
-2,45934828839928E-6;
-1,75715844240376E-6;
8,91582311228956E-7;
4,93877598792294E-6;
8,19076631843083E-6;
9,01091413494148E-6;
7,95779131155947E-6;
7,34422474409034E-6;
9,04516594815279E-6;
1,24580587040412E-5;
1,44828354227263E-5;
1,17458727593676E-5;
3,39481941532121E-6;
-7,7825194597202E-6;
-1,69116683083453E-5;
-2,01705933523672E-5;
-1,71846084816044E-5;
-1,09360540932254E-5;
-5,38119904792386E-6;
-2,68988070112232E-6;
-2,1835071959461E-6;
-1,57828660033311E-6;
7,16301620443414E-7;
4,23065795804701E-6;
7,05961960269808E-6;
7,78249450747885E-6;
6,88930569999742E-6;
6,39367832153255E-6;
7,9215996835046E-6;
1,09372016360129E-5;
1,27306927942561E-5;
1,03594934302482E-5;
3,0822494561725E-6;
-6,67000312180196E-6;
-1,46492163928497E-5;
-1,75231522276391E-5;
-1,49585324985112E-5;
-9,54290639348468E-6;
-4,71486516428475E-6;
-2,36694863657549E-6;
-1,92180072668924E-6;
-1,40655319342119E-6;
5,58377765122872E-7;
0,00933700996001643;
0,0226357397696158;
0,0163793783515926;
0,00943899101447881;
0,012174897054212;
0,00703303380091177;
0,0056443233035029;
0,00459379050487023;
0,000849550126960653;
0,00103516948534471;
-0,00119608066821441;
-0,0020044952492684;
-0,00282218996331512;
-0,00456655990075814;
-0,0048955638094789;
-0,00585998990134448;
-0,00594328006691995;
-0,00618416371576143;
-0,00699481961854688;
-0,00792028595858288;
-0,00934591238769065;
-0,0102378448326176;
-0,0105129102528154;
-0,0101035463612973;
-0,00920298294436706;
-0,00842441299829148;
-0,0078222633224571;
-0,00744793242355308;
-0,00704022977271196;
-0,00641619491002531;
-0,00568015132610733;
-0,00496908445269051;
-0,00446584862001129;
-0,00410171842899058;
-0,00367085385123002;
-0,00303007383515499;
-0,00223001105341952;
-0,00157427415988012;
-0,0013621646986413;
-0,00166495211881488;
-0,00222329562801971;
-0,00258289980592602;
-0,00240213485711493;
-0,00165304867905199;
-0,000620809629717978;
0,000321645638131332;
0,000970598307882718;
0,0013839797258417;
0,00177181552926722;
0,00228066153484611;
-0,00646356187638575;
-0,0192603358899573;
-0,0127184638464099;
-0,00565784947348075;
-0,00825055678050927;
-0,00279568701665751;
-0,000982228741522991;
0,000345188073844996;
0,00394395305663455;
0,00312984882991985;
0,00449077131766885;
0,00459652101869193;
0,00519493905373149;
0,00722838801947709;
0,00809972906380643;
0,00952544003769771;
0,00980578510675666;
0,0100352307785864;
0,0108165146048794;
0,0118288236073542;
0,0134222114166997;
0,0144103128812872;
0,0145988896938531;
0,0139668991609195;
0,0128767222023114;
0,0120733424634431;
0,0115600460937002;
0,0111576933498789;
0,0103611947161159;
0,00893432417459937;
0,00719651589410085;
0,00564922241827951;
0,00475597387389043;
0,00446994767440349;
0,00435846893720445;
0,00398138678100592;
0,00322675289303339;
0,00244761254244445;
0,0021120524949188;
0,00240985962481773;
0,00304988727231098;
0,00344224036724651;
0,00314650631088654;
0,002175461625547;
0,000963406990650017;
-7,74888870081031E-7;
-0,00055916073529621;
-0,000973862650141942;
-0,00167069411383868;
-0,00284362946257369;
-0,00426278594350385;
-0,00543747500635441;
-0,00599628809699414;
-0,00597161986804078;
-0,00575054794992252;
-0,00574049947607019;
-0,00602737749726877;
-0,00631092651001035;
-0,00617143756747447;
-0,00544549372207473;
-0,00440082855392778;
-0,00356295334042614;
-0,00333192540417203;
-0,00369720022293356;
-0,00427570625512025;
-0,00463505083223005;
-0,00463427109796711;
-0,00450766722137769;
-0,00463309550803977;
-0,00518517205967057;
-0,00596386194178367;
-0,00653846783527719;
-0,006584408264605;
-0,00613240755016654;
-0,00552544406917192;
-0,00512266707729033;
-0,00499840901137417;
-0,00488675373402915;
-0,00441753958433204;
-0,00344835184051335;
-0,00221769035624403;
-0,0011910556502057;
-0,000722476626777964;
-0,000803048759649675;
-0,00109490197918735;
-0,00121601880773527;
-0,00104038444430502;
-0,000772005387040785;
-0,000741617969782162;
-0,00110252671243202;
-0,00168032009959215;
-0,00209898029417203;
-0,00207543537506797;
-0,00163693184253143;
-0,00108260433451621;
-0,000724281193881377;
-0,000623990913784581;
-0,000546765471742152;
-0,000167923952492046;
0,00063671778538002;
0,00165782025811704;
0,00248797957404008;
0,0028178898879552;
0,00265586664558471;
0,00229793298936418;
0,0020791807795497;
0,00211198113398673;
0,00222125325867887;
0,0021209967969629;
0,001678403381894;
0,00104426245387982;
0,000543663936759493;
0,0004210550408446;
0,000652637191256744;
0,00098038013133081;
0,00113658076233545;
0,00107034944619027;
0,000987237890425619;
0,0011689989470426;
0,00172255400011771;
0,00246574393399471;
0,0030453812130598;
0,00319371425170887;
0,00291804847288573;
0,00247466986779415;
0,00215409315814175;
0,0020551722873501;
0,00202907808944928;
0,00183087706732881;
0,00134630071165591;
0,000703630973396018;
0,000180063436133039;
-1,63892140678507E-5;
9,31329557835763E-5;
0,000288162074473674;
0,000341221924648817;
0,000210901840730788;
7,45812375132556E-5;
0,000173437708067269;
0,000597840017797704;
0,0011904680272224;
0,00164808447882432;
0,00174106066216983;
0,00147522875728197;
0,00106940003646919;
0,000772089153950423;
0,000668943645203907;
0,000634820255393823;
0,000462281494490296;
5,38265332460893E-5;
-0,000483342928703103;
-0,000916493996465692;
-0,00107146005982739;
-0,000967166139537939;
-0,000789742974057441;
-0,000729976445528399;
-0,000820994173270472;
-0,000911791617448661;
-0,000798846894342657;
-0,000407133695245006;
0,00012893681313821;
0,000552185746934514;
0,000668095582041842;
0,000481077615829344;
0,000175325852659841;
-3,94587953996358E-5;
-8,9963323850698E-5;
-7,97154561580846E-5;
-0,000181769409184068;
-0,000478168701717178;
-0,000880882710081148;
-0,00119772477447085;
-0,00128532733154954;
-0,00116042272344015;
-0,000977629415886691;
-0,000894172062997613;
-0,000935665605454167;
-0,000975257583901276;
-0,00084377188806618;
-0,000479983733712513;
2,94958209336627E-6;
0,000390262140680839;
0,000519783775552292;
0,000394819079419732;
0,000168069985545995;
1,38667072565905E-5;
-5,70712787638264E-6;
2,55714597212414E-5;
-3,390547008683E-5;
-0,000251893794626829;
-0,000557523990186009;
-0,000795173405533279;
-0,000849177018459582;
-0,000734040010733678;
-0,000575617843745479;
-0,000500620422484799;
-0,000527858448593477;
-0,000552390473705467;
-0,000436101896363626;
-0,000130076337764643;
0,000272082295725416;
0,000594339011596961;
0,00070406365599165;
0,000603697777721718;
0,000417477149602984;
0,000287699024506844;
0,00026624008291888;
0,000287154939674089;
0,000237290404149017;
6,19088999775343E-5;
-0,000183439850909218;
-0,000375930525177911;
-0,000424709176181726;
-0,000342162572931096;
-0,000228208411543413;
-0,00018214268942406;
-0,000216774212333061;
-0,00024699269603902;
-0,000162661811132432;
7,41377801529928E-5;
0,000387533121865015;
0,000636463379808299;
0,000714949001127941;
0,000624674412192598;
0,000464244187870789;
0,000347070817114477;
0,000315719813866912;
0,000320108102679946;
0,000272520213176612;
0,000129888488185612;
-6,58886146247533E-5;
-0,000221247469599494;
-0,000267454987136637;
-0,000214986593036882;
-0,000140643080547247;
-0,000119374380587885;
-0,000158816812077358;
-0,000191730507827185;
-0,00013303545205568;
4,53876574697234E-5;
0,000283559845954995;
0,000471694484749732;
0,000527614724701894;
0,000452308525206492;
0,000321457885476528;
0,000222611632763697;
0,000189880154342289;
0,00018714050364087;
0,000149201906789544;
4,3353983604493E-5;
-0,000100573393270566;
-0,000214903993489107;
-0,000250459495313999;
-0,000216007604874647;
-0,000167926817502839;
-0,000159736338397213;
-0,000194661053262899;
-0,000221421307744953;
-0,00017717280973427;
-4,24383649562592E-5;
0,000136946170230984;
0,000278938553222726;
0,000322458931820847;
0,00026788418675899;
0,0001705982605715;
9,52154989539105E-5;
6,82568565528887E-5;
6,57932148106764E-5;
4,24235513646789E-5;
-2,54233722571589E-5;
-0,000118455912269552;
-0,00019165534926827;
-0,000212936640593446;
-0,000189524293222879;
-0,000159894477189302;
-0,000158854560401199;
-0,000185887365283615;
-0,00020381270377508;
-0,00016930939984304;
-7,04190054365324E-5;
5,95242505267316E-5;
0,000162895170417464;
0,000197169522787214;
0,000162221510907338;
9,56543926626199E-5;
4,19569820107414E-5;
2,09190209069348E-5;
1,9173059896332E-5;
8,55421578969712E-6;
-2,65003137513804E-5;
-7,57836523786596E-5;
-0,000113884727158235;
-0,000123487208422844;
-0,000110416886259052;
-9,7601368151038E-5;
-0,000103669013080159;
-0,000124962337951402;
-0,000136627807459099;
-0,000112304610804756;
-4,64956729635508E-5;
3,84188242978966E-5;
0,000106098989948944;
0,000130186593145943;
0,000110156425810996;
6,81994816169538E-5;
3,13239991011823E-5;
1,34055154369946E-5;
1,01195198123081E-5;
8,15000283321853E-6;
-1,12070200730381E-6;
-1,52241921273439E-5;
-2,55231904273045E-5;
-2,73142762082437E-5;
-2,51700919272088E-5;
-2,86697288013186E-5;
-4,26219353106131E-5;
-6,07836960721018E-5;
-6,89720931707329E-5;
-5,54030807720012E-5;
-2,00698702843065E-5;
2,41398076497511E-5;
5,92343295161621E-5;
7,27798036893264E-5;
6,39362319381873E-5;
4,16799454438948E-5;
1,79971900317331E-5;
1,61009799764373E-6;
-4,17373740473851E-6;
-4,32093049087178E-8;
1,13301234295658E-5;
2,59066831501205E-5;
3,81563427380807E-5;
4,21482324492582E-5;
3,44145888179352E-5;
1,66820841523896E-5;
-4,22108324099586E-6;
-1,99756924140625E-5;
-2,55362835178504E-5;
-2,14967799689818E-5;
-1,24555295977751E-5;
-3,1753820931591E-6;
3,97006448014275E-6;
8,3875971661809E-6;
8,99243082638182E-6;
3,571810070688E-6;
-8,63966477501301E-6;
-2,3366676068002E-5;
-3,09654740384602E-5;
-2,15444764966299E-5;
7,2447839720399E-6;
4,59754703995086E-5;
7,73336646712364E-5;
8,65615438505645E-5;
7,11536982566608E-5;
4,22669776277892E-5;
1,63693315012057E-5;
3,39826883157955E-6;
6,76040926538002E-7;
-2,75070013153411E-6;
-1,52786967951028E-5;
-3,48087224592172E-5;
-5,06078755157503E-5;
-5,33440181838328E-5;
-4,4284156842641E-5;
-3,49720572564473E-5;
-3,68390476846471E-5;
-4,93999132382654E-5;
-5,78502017701201E-5;
-4,35830065566366E-5;
-7,63850195677727E-8;
5,88731200967651E-5;
0,000106335249781114;
0,000120367738732303;
9,92963852213562E-5;
6,20039060531529E-5;
3,27888486354238E-5;
2,28023893942106E-5;
2,29412716149126E-5;
1,37344660578371E-5;
-1,62806170059636E-5;
-5,9296687192627E-5;
-9,3763986196807E-5;
-0,000102169585120893;
-8,59054037334964E-5;
-6,41535428012321E-5;
-5,71086785306499E-5;
-6,7468832505061E-5;
-7,63252777253156E-5;
-5,80411203714246E-5;
-2,68803694858431E-6;
7,24846462603179E-5;
0,000132885839337048;
0,000150869844382322;
0,000125474010394406;
8,17705077624807E-5;
5,02625482483825E-5;
4,29602648483959E-5;
4,55156008651391E-5;
3,16062474559851E-5;
-1,26371990806989E-5;
-7,47465686809244E-5;
-0,000124427147733259;
-0,000137562933976768;
-0,000115620105259925;
-8,38907994676882E-5;
-6,9612741984754E-5;
-7,81122854149794E-5;
-8,7319446370638E-5;
-6,60793977903187E-5;
-1,7486031451768E-6;
8,57885514198062E-5;
0,000156028283818188;
0,000176944259284187;
0,000148175485483685;
9,96082892835976E-5;
6,64998081557424E-5;
6,14096506612291E-5;
6,58090062118904E-5;
4,80182386360994E-5;
-7,65238467005739E-6;
-8,50179263910708E-5;
-0,000146899912294491;
-0,000163996023391792;
-0,000137803873428777;
-9,83584970690417E-5;
-7,83991436424733E-5;
-8,53783217967229E-5;
-9,49004090379675E-5;
-7,1638936740564E-5;
-8,53893844987813E-7;
9,56570887202612E-5;
0,000173025869643223;
0,000196015865168779;
0,000164766848531481;
0,000112758067889615;
7,87167924407224E-5;
7,54842858351711E-5;
8,13014309639841E-5;
6,0458801405989E-5;
-4,03677670910362E-6;
-9,31280868152245E-5;
-0,000164411110515814;
-0,000184659076987374;
-0,000155365673907183;
-0,000110096569145263;
-8,57230582375963E-5;
-9,13730627942547E-5;
-0,000101058923479754;
-7,64705361387967E-5;
-1,32051762387483E-6;
0,000101311443732212;
0,000183551700374813;
0,000207979555099479;
0,000175143947358952;
0,000121042719005764;
8,67480877279958E-5;
8,51542250767437E-5;
9,21136459031248E-5;
6,90565659947739E-5;
-1,8620212111614E-6;
-9,94610601767743E-5;
-0,000177574897943572;
-0,000200165891017161;
-0,000168694816546391;
-0,000119192482831773;
-9,14561425725734E-5;
-9,58874737020914E-5;
-0,000105543895518479;
-8,01695450840841E-5;
-2,41210110212502E-6;
0,000103913310111262;
0,000189108582728416;
0,000214459916022796;
0,000180843373083205;
0,000125840034021378;
9,18913295656785E-5;
9,17519802688994E-5;
9,96254642677858E-5;
7,51022028059355E-5;
-1,238207322539E-7;
-0,000103404550625283;
-0,00018609245547181;
-0,000210312081649014;
-0,000177467834223839;
-0,000125128206194956;
-9,49642689570816E-5;
-9,82964419444105E-5;
-0,000107774119825033;
-8,20926690873178E-5;
-3,25430256180521E-6;
0,000104658509368367;
0,00019113847079461;
0,000216943839208434;
0,000183205109041038;
0,000128281199515227;
9,51463159818677E-5;
9,62566876012266E-5;
0,000104809540596796;
7,94367570870099E-5;
1,70566378644471E-6;
-0,000104839319812957;
-0,000190175877641938;
-0,000215432151223937;
-0,000181937733492942;
-0,000128000359783121;
-9,62569293932739E-5;
-9,86358179484235E-5;
-0,000107841905854149;
-8,22879367115603E-5;
-3,69145067209036E-6;
0,000103993227319898;
0,000190311342267106;
0,00021614186327331;
0,000182805788102501;
0,000128754826982876;
9,67881057358805E-5;
9,89343700255134E-5;
0,000107937166112168;
8,22216194465932E-5;
3,51052770618926E-6;
-0,000104245644136964;
-0,000190596476555481;
-0,000216392873606824;
-0,000182875780232786;
-0,000128413434440856;
-9,58344921195915E-5;
-9,74061265059801E-5;
-0,000106275827976195;
-8,12193629208109E-5;
-3,9761595114652E-6;
0,000101956480010812;
0,000186896965303473;
0,000212386629614404;
0,000179881221575875;
0,000127350732057654;
9,68291346459331E-5;
9,98156541062024E-5;
0,000109069128045134;
8,34403767390834E-5;
5,04195728349715E-6;
-0,000102185686661791;
-0,000188162799877949;
-0,000214069547885548;
-0,000181048524822168;
-0,000126959790764485;
-9,41730367740027E-5;
-9,50638603269603E-5;
-0,000103539957262044;
-7,92755815186413E-5;
-4,2888086016339E-6;
9,86484350436958E-5;
0,000181219794533366;
0,000206073190262047;
0,000174750999200429;
0,000124267821987214;
9,54095425167555E-5;
9,90678478465353E-5;
0,000108409089047213;
8,32332283169716E-5;
6,23342664438244E-6;
-9,90077583723514E-5;
-0,000183444609728553;
-0,00020908996333309;
-0,000176981926241951;
-0,000124004042822582;
-9,15289589605657E-5;
-9,18460900979589E-5;
-9,987812615623E-5;
-7,66332460384184E-5;
-4,61947509897036E-6;
9,43304659997151E-5;
0,000173741389178718;
0,000197724066067663;
0,000167866478465574;
0,000119845456235772;
9,28125444607498E-5;
9,69951700005019E-5;
0,000106289535920249;
8,18693905702318E-5;
7,16027095312777E-6;
-9,48988794625065E-5;
-0,000176836792060975;
-0,000201908748599513;
-0,000171045284136799;
-0,000119775820785419;
-8,80399373477123E-5;
-8,78789928306629E-5;
-9,54291489641307E-5;
-7,33779046156636E-5;
-4,89339155472799E-6;
8,92960225051617E-5;
0,000164928146620342;
0,000187854095775654;
0,000159672977548413;
0,000114423417722208;
8,93229200380326E-5;
9,38965841627861E-5;
0,000103029670410349;
7,96055286221386E-5;
7,89892279719647E-6;
-9,00243757467771E-5;
-0,000168697202446817;
-0,000192942746132238;
-0,000163583443401642;
-0,000114498403791005;
-8,38498436015518E-5;
-8,3298935608811E-5;
-9,03438024288757E-5;
-6,96162476670629E-5;
-5,07775319756015E-6;
8,37696704847318E-5;
0,000155156152408195;
0,000176880658927714;
0,000150524893997332;
0,000108261777353543;
8,51518401533174E-5;
8,999596704698E-5;
9,88710736635105E-5;
7,66266955281977E-5;
8,47275169725611E-6;
-8,45774106688191E-5;
-0,000159391458488971;
-0,000182610648403348;
-0,000154950950885675;
-0,000108417386418044;
-7,91323006428237E-5;
-7,82713843542234E-5;
-8,47992078476406E-5;
-6,54857415490095E-5;
-5,18621142293216E-6;
7,79078649991663E-5;
0,000144716753246021;
0,000165133181149117;
0,000140698267897895;
0,000101556031999896;
8,04545956711171E-5;
8,54625958270386E-5;
9,40008870944186E-5;
7,30717274612409E-5;
8,87895332212875E-6;
-7,87510701250358E-5;
-0,000149263981299605;
-0,000171302600736877;
-0,0001454798207055;
-0,000101766665676265;
-7,40553548791832E-5;
-7,2954797154849E-5;
-7,89621839768391E-5;
-6,11171478937636E-5;
-5,24009583039741E-6;
7,18391779424282E-5;
0,000133857809210976;
0,000152894474563872;
0,000130431319152146;
9,44764460399241E-5;
7,53688629576644E-5;
8,04486500754141E-5;
8,85885703191396E-5;
6,90688014910173E-5;
9,12224801278287E-6;
-7,27069226876762E-5;
-0,00013860861346385;
-0,000159352238267239;
-0,000135452392888728;
-9,47419428388253E-5;
-6,87559836131917E-5;
-6,7476614766904E-5;
-7,29667755473452E-5;
-5,66131494958318E-5;
-5,24746081226577E-6;
6,56851824745388E-5;
0,000122804174056994;
0,000140420009362368;
0,00011994171794572;
8,71830298018051E-5;
7,00276934450627E-5;
7,51007088997907E-5;
8,27960663999484E-5;
6,47438796760818E-5;
9,22099994650234E-6;
-6,65715284795504E-5;
-0,000127667441828835;
-0,000147036975440254;
-0,000125102283722472;
-8,75020738553001E-5;
-6,3342091748513E-5;
-6,1936292174225E-5;
-6,69183582025702E-5;
-5,20529755686368E-5;
-5,20745231142772E-6;
5,95567713059783E-5;
0,000111754438764125;
0,000127934283968243;
0,000109421796823674;
7,98193493104177E-5;
6,45523033980254E-5;
6,95520477611544E-5;
7,67697702272395E-5;
6,02119860299833E-5;
9,19714265046209E-6;
-6,04481820567122E-5;
-0,000116643811543571;
-0,000134591429657255;
-0,000114627382595342;
-8,01813193391642E-5;
-5,79043122584673E-5;
-5,64170855957585E-5;
-6,0905447017031E-5;
-4,75037111857016E-5;
-5,1203479625089E-6;
5,35458173434859E-5;
0,000100873991613344;
0,00011562441594594;
9,90318642292183E-5;
7,25053120733931E-5;
5,90446463080788E-5;
6,39155155480265E-5;
7,06338457552484E-5;
5,55704888666028E-5;
9,0687349215124E-6;
-5,44254565988184E-5;
-0,000105711658157907;
-0,00012221665373821;
-0,000104198138295357;
-7,28964108462728E-5;
-5,25221798715835E-5;
-5,09918273999954E-5;
-5,50051712914951E-5;
-4,30249719708302E-5;
-4,99069844319856E-6;
4,77239329778572E-5;
9,0295345032897E-5;
0,000103641165928948;
8,89010609076519E-5;
6,53375434004666E-5;
5,35876324802714E-5;
5,8284078352102E-5;
6,4491181674232E-5;
5,08999720529502E-5;
8,84999718110786E-6;
-4,85783947251053E-5;
-9,50176098382302E-5;
-0,000110082292781627;
-9,39589527589465E-5;
-6,57469121180865E-5;
-4,72637856994529E-5;
-4,57223854921024E-5;
-4,92826658053867E-5;
-3,86677652399511E-5;
-4,82493297695153E-6;
4,21465014631826E-5;
8,01234526060806E-5;
9,21046512294942E-5;
7,91326202725905E-5;
5,83939067871009E-5;
4,82492281650221E-5;
5,27349653853239E-5;
5,84276629310949E-5;
4,62681335527167E-5;
8,5540780211414E-6;
-4,29672794746972E-5;
-8,46809621797368E-5;
-9,83269003644016E-5;
-8,40279991352873E-5;
-5,88142543343463E-5;
-4,21843767910498E-5;
-4,06583193092527E-5;
-4,3789886745922E-5;
-3,44730033491772E-5;
-4,6288724928382E-6;
3,68565359734389E-5;
7,04406244262636E-5;
8,11094641960263E-5;
6,98083908549941E-5;
5,17371519022784E-5;
4,30855315835733E-5;
4,73326514751057E-5;
5,25151478410911E-5;
4,17322663186148E-5;
8,19431384334082E-6;
-3,76379724025053E-5;
-7,47953031965296E-5;
-8,70599888536975E-5;
-7,44988655523593E-5;
-5,21626865056037E-5;
-3,73269030453874E-5;
-3,58374996186361E-5;
-3,85664302472222E-5;
-3,047207115716E-5;
-4,40733409018239E-6;
3,18864020608338E-5;
6,13092787214123E-5;
7,0727645469195E-5;
6,09912288164788E-5;
4,54164887627865E-5;
3,81418510270253E-5;
4,21298940830597E-5;
4,68125462782627E-5;
3,73398951102014E-5;
7,78372603618092E-6;
-3,26239331970272E-5;
-6,54317224930364E-5;
-7,63655800182553E-5;
-6,54436459791649E-5;
-4,58416098998116E-5;
-3,27238951063231E-5;
-3,12879943108657E-5;
-3,36415143749336E-5;
-2,66884795834681E-5;
-4,16480685013912E-6;
2,72584884817688E-5;
5,27736598175081E-5;
6,10106747240273E-5;
5,27265412125705E-5;
3,94684241116481E-5;
3,34531497194086E-5;
3,71682228261304E-5;
4,13664182046924E-5;
3,31290370878787E-5;
7,33424163780942E-6;
-2,79483742989676E-5;
-5,66420446059042E-5;
-6,63057310485454E-5;
-5,69159570074091E-5;
-3,98878273842489E-5;
-2,83992178117558E-5;
-2,7029756404446E-5;
-2,90357290860124E-5;
-2,31392627867459E-5;
-3,90586635167316E-6;
2,29860981582432E-5;
4,4861771278997E-5;
5,19917045344328E-5;
4,50441151910844E-5;
3,39179762274929E-5;
2,90449152802289E-5;
3,2478883310035E-5;
3,62120502979683E-5;
2,91289514430654E-5;
6,85648872563982E-6;
-2,36257911840567E-5;
-4,84613930758677E-5;
-5,69233509424467E-5;
-4,89532944271465E-5;
-3,43271512759848E-5;
-2,43691920217737E-5;
-2,30756922493873E-5;
-2,47621550201586E-5;
-1,98357834310762E-5;
-3,63507188297676E-6;
1,90747762537097E-5;
3,75876682352213E-5;
4,36881320653473E-5;
3,79603056000472E-5;
2,87802627450414E-5;
2,49344179401599E-5;
2,80841433520224E-5;
3,13748847650483E-5;
2,53612571859826E-5;
6,35995923311319E-6;
-1,96630433727061E-5;
-4,09102576863322E-5;
-4,82445472419719E-5;
-4,15789410379238E-5;
-2,91756397977566E-5;
-2,06434070852617E-5;
-1,94324354076673E-5;
-2,08272018200178E-5;
-1,67842906161998E-5;
-3,3567042834514E-6;
1,55236862605472E-5;
3,09537101279501E-5;
3,61040834348964E-5;
3,14801430259967E-5;
2,40620470570517E-5;
2,1131956234378E-5;
2,39985899430089E-5;
2,68718855465702E-5;
2,18409899136268E-5;
5,85319168808165E-6;
-1,60603817147047E-5;
-3,3996463524784E-5;
-4,02808593141104E-5;
-3,48038284024426E-5;
-2,44408344293544E-5;
-1,72255568705561E-5;
-1,61011560847402E-5;
-1,72314887102845E-5;
-1,39865560571033E-5;
-3,07464917906559E-6;
1,23267600734985E-5;
2,49525165094393E-5;
2,92325928085611E-5;
2,55991763234924E-5;
1,97630487919998E-5;
1,76418695939978E-5;
2,02301806784235E-5;
2,2712690139495E-5;
1,85774673113352E-5;
5,34379432515483E-6;
-1,28125185819707E-5;
-2,7717118234385E-5;
-3,30314732232461E-5;
-2,86283893257311E-5;
-2,01230386330202E-5;
-1,41143503019792E-5;
-1,30784361634866E-5;
-1,39707858009769E-5;
-1,14405725238349E-5;
-2,79240287914096E-6;
9,47362060012637E-6;
1,95686398736456E-5;
2,30574695642224E-5;
2,03050296886445E-5;
1,58770496333526E-5;
1,44633950133983E-5;
1,67811619380474E-5;
1,89006030569477E-5;
1,55750090777442E-5;
4,8384244984251E-6;
-9,90967614864002E-6;
-2,20604684768623E-5;
-2,64852911318373E-5;
-2,30443052071669E-5;
-1,6216530085941E-5;
-1,13043756896011E-5;
-1,03570909113269E-5;
-1,10368803987266E-5;
-9,14123534122521E-6;
-2,51311499801734E-6;
6,95041639316517E-6;
1,47800726836833E-5;
1,75550133692787E-5;
1,55788382942134E-5;
1,2392902409735E-5;
1,15914680310231E-5;
1,36489068241285E-5;
1,54335250089449E-5;
1,28336502667144E-5;
4,34279305308249E-6;
-7,3385061590817E-6;
-1,70075460544998E-5;
-2,062280155822E-5;
-1,80360787697219E-5;
-1,27106431458746E-5;
-8,78685503507299E-6;
-7,92689855664064E-6;
-8,41835655773202E-6;
-7,08089999211229E-6;
-2,23958795047031E-6;
4,74058884788512E-6;
1,05596403070771E-5;
1,26955654201171E-5;
1,1396568636748E-5;
9,2954875006874E-6;
9,01747526496677E-6;
1,08267372001815E-5;
1,23048458018269E-5;
1,03498076044317E-5;
3,86171812540639E-6;
-5,08287719633381E-6;
-1,25336290465746E-5;
-1,54177342438176E-5;
-1,35824152232715E-5;
-9,5907093496863E-6;
-6,55030794471891E-6;
-5,77521383358361E-6;
-6,1012447376171E-6;
-5,24988891909316E-6;
-1,97426408864121E-6;
2,82558708662023E-6;
6,87626201180571E-6;
8,44493875225695E-6;
7,73022558528742E-6;
6,5665851110786E-6;
6,72996178921595E-6;
8,30467944485547E-6;
9,50427724675429E-6;
8,11692019266647E-6;
3,39919328785326E-6;
-3,12456781310857E-6;
-8,60953666828336E-6;
-1,08385276418546E-5;
-9,65746215800667E-6;
-6,83891014131787E-6;
-4,58113005406354E-6;
-3,88752044522978E-6;
-4,06961586540252E-6;
-3,63692420695284E-6;
-1,71921438973926E-6;
1,1854826974099E-6;
3,69604883909334E-6;
4,76565422236084E-6;
4,54890237102739E-6;
4,18564578151547E-6;
4,71526458686976E-6;
6,07013678927389E-6;
7,01858012189486E-6;
6,12601526596448E-6;
2,95845190981137E-6;
-1,4438816563098E-6;
-5,20278059719513E-6;
-6,84965529728931E-6;
-6,23192736036718E-6;
-4,43503256305382E-6;
-2,86412442361568E-6;
-2,24793451038357E-6;
-2,30611393588451E-6;
-2,22953716835367E-6;
-1,47615381523144E-6;
-2,0049306944466E-7;
9,83276026205874E-7;
1,61803164851229E-6;
1,81970757760925E-6;
2,13045934183121E-6;
2,95805254009877E-6;
4,10849191367817E-6;
4,83222997648993E-6;
4,36621010436033E-6;
2,54201815765186E-6;
-2,01942443422463E-8;
-2,27859467516395E-6;
-3,41279400307927E-6;
-3,27405751793118E-6;
-2,35715399482955E-6;
-1,38298017562165E-6;
-8,39646059065813E-7;
-7,92427096373691E-7;
-1,0144256431631E-6;
-1,24646068059517E-6;
-1,35351129985366E-6;
-1,29880338222595E-6;
-1,03887937979956E-6;
-4,91439982849741E-7;
3,77747377643355E-7;
1,4418113107651E-6;
2,40362002055322E-6;
2,92798709013848E-6;
2,82516366486561E-6;
2,15177553653011E-6;
1,16758402490357E-6;
1,99183831263274E-7;
-4,8783457439579E-7;
-7,50505325901265E-7;
-5,8223212759723E-7;
-1,20678960367247E-7;
3,54691861471705E-7;
4,90301568150453E-7;
2,22273342643325E-8;
-1,03119574496546E-6;
-2,29475159414561E-6;
-3,18724867098967E-6;
-3,24649665811148E-6;
-2,41913143394774E-6;
-1,09634580923118E-6;
1,49264208982874E-7;
9,38370597731495E-7;
1,2874199437687E-6;
1,48946918924162E-6;
1,78901584372772E-6;
2,14060880290922E-6;
2,26734540297038E-6;
1,96623419290144E-6;
1,37293013176896E-6;
9,13378466911452E-7;
9,40150703221676E-7;
1,35264279365298E-6;
1,56112906974927E-6;
8,94489851394614E-7;
-8,31124526834271E-7;
-3,04508652303032E-6;
-4,71883512512066E-6;
-5,04602352046296E-6;
-3,99787550763528E-6;
-2,31580535042269E-6;
-9,3725574879344E-7;
-3,05033410282466E-7;
-1,08654458392441E-7;
3,45015435820685E-7;
1,45450845866451E-6;
2,91976873599832E-6;
3,96267357810947E-6;
3,9905841322236E-6;
3,13066611612377E-6;
2,1534954176168E-6;
1,81692939909246E-6;
2,17170223711334E-6;
2,43901388643725E-6;
1,61644293987345E-6;
-6,46740119765825E-7;
-3,62481030393126E-6;
-5,92955657411882E-6;
-6,47788334114168E-6;
-5,26161772882731E-6;
-3,30438448170528E-6;
-1,83549540428143E-6;
-1,34464757384115E-6;
-1,27977318028587E-6;
-6,22708259278551E-7;
1,14856248239932E-6;
3,52542732724043E-6;
5,32139802629505E-6;
5,62592148883451E-6;
4,55681304526655E-6;
3,16174072625323E-6;
2,52687811331063E-6;
2,829062206485E-6;
3,14256560180532E-6;
2,20199817751452E-6;
-4,782828900686E-7;
-4,05343724630181E-6;
-6,85422838345892E-6;
-7,58125727560636E-6;
-6,24333696154562E-6;
-4,08529813409049E-6;
-2,56301528639591E-6;
-2,19849929657936E-6;
-2,24550318453895E-6;
-1,42835455835949E-6;
8,71080411416965E-7;
3,97718708812107E-6;
6,37876065964457E-6;
6,9119764690108E-6;
5,68472308435321E-6;
3,96123108747259E-6;
3,08680248286598E-6;
3,34142732227846E-6;
3,68985011594129E-6;
2,66472525067393E-6;
-3,25774662016032E-7;
-4,34952900132122E-6;
-7,5261631148782E-6;
-8,39371851887445E-6;
-6,97473195961415E-6;
-4,68098512379459E-6;
-3,13697118625949E-6;
-2,88434288990506E-6;
-3,02515897912816E-6;
-2,08648678923598E-6;
6,21617039332313E-7;
4,29373188075174E-6;
7,16865202935953E-6;
7,88707216555927E-6;
6,54663375354055E-6;
4,57433010625285E-6;
3,51292423047749E-6;
3,72485140575787E-6;
4,09822051239734E-6;
3,01772818553271E-6;
-1,89037922977605E-7;
-4,53057611716527E-6;
-7,97693150165752E-6;
-8,9509387801909E-6;
-7,48595911451383E-6;
-5,1129039536091E-6;
-3,57393668216782E-6;
-3,41945531844867E-6;
-3,63757581743969E-6;
-2,61139860283177E-6;
3,99432108361941E-7;
4,49269190871734E-6;
7,72333614226651E-6;
8,5878043961388E-6;
7,17338249394701E-6;
5,0224470894682E-6;
3,82074878468079E-6;
3,99462518387407E-6;
4,38418752993063E-6;
3,27353340816515E-6;
-6,77239253757248E-8;
-4,6129070561083E-6;
-8,23617910890314E-6;
-9,28649087785701E-6;
-7,80545959307664E-6;
-5,4013875761926E-6;
-3,88976152531978E-6;
-3,82046562523335E-6;
-4,1009191654216E-6;
-3,0169545578169E-6;
2,03537999327362E-7;
4,59055049671192E-6;
8,07324967573443E-6;
9,04879161884692E-6;
7,5941912287022E-6;
5,32589178161101E-6;
4,02495545766962E-6;
4,16517519229776E-6;
4,56333080304492E-6;
3,44402050133507E-6;
3,86616376484848E-8;
-4,6116420021267E-6;
-8,33151093628733E-6;
-9,43169457713936E-6;
-7,95981878579205E-6;
-5,5655341148464E-6;
-4,09946409371738E-6;
-4,1032276028541E-6;
-4,43254027567498E-6;
-3,31647165420773E-6;
3,27489352720914E-8;
4,60258956936056E-6;
8,24684107056871E-6;
9,30248297919123E-6;
7,83649969686805E-6;
5,50375278932099E-6;
4,13932901796349E-6;
4,25001180005759E-6;
4,65022429811658E-6;
3,54034735394129E-6;
1,30738411207183E-7;
-4,54065540588337E-6;
-8,28841717526018E-6;
-9,41552691879168E-6;
-7,97368646681248E-6;
-5,62313299089295E-6;
-4,21715148002E-6;
-4,28271866608807E-6;
-4,6488601815402E-6;
-3,52262189723276E-6;
-1,14279847472113E-7;
4,54285481015308E-6;
8,27048972979337E-6;
9,37905565435482E-6;
7,92586849729403E-6;
5,57382857026517E-6;
4,17670723616604E-6;
4,26167665910664E-6;
4,65840072840635E-6;
3,5729305877027E-6;
2,09219508564994E-7;
-4,41257882815866E-6;
-8,13023952747628E-6;
-9,26459114211708E-6;
-7,86973567446571E-6;
-5,59061800766863E-6;
-4,25596598070935E-6;
-4,37297217705971E-6;
-4,76529377837981E-6;
-3,64735547992069E-6;
-2,39008451554702E-7;
4,42414989886481E-6;
8,1684554293619E-6;
9,30633273770604E-6;
7,88590541686688E-6;
5,55258100690671E-6;
4,1489494783198E-6;
4,21172681493186E-6;
4,60032250376012E-6;
3,55140313144307E-6;
2,74903365454046E-7;
-4,23881473398577E-6;
-7,87819266025402E-6;
-9,00310192197164E-6;
-7,66865219832134E-6;
-5,48305732078993E-6;
-4,22805126765077E-6;
-4,38702558308361E-6;
-4,7961856501466E-6;
-3,70185388270214E-6;
-3,42981035001375E-7;
4,25804848584148E-6;
7,96286045483587E-6;
9,10976864553314E-6;
7,73825062698185E-6;
5,45510904067601E-6;
4,06692739919487E-6;
4,11073558437025E-6;
4,48738783161447E-6;
3,48461937421293E-6;
3,28642312162736E-7;
-4,02956818726264E-6;
-7,55138992706313E-6;
-8,65294002304626E-6;
-7,38916592565775E-6;
-5,31415554477176E-6;
-4,14455017245687E-6;
-4,33690455604572E-6;
-4,75479081242877E-6;
-3,69649820736987E-6;
-4,277932075958E-7;
4,05492273501154E-6;
7,67372927970466E-6;
8,81246624069701E-6;
7,50257675470493E-6;
5,29516541315654E-6;
3,9405345299498E-6;
3,96829218613093E-6;
4,32993687389173E-6;
3,38065237677018E-6;
3,71329801342718E-7;
-3,79388888138414E-6;
-7,16691060523338E-6;
-8,23369826535064E-6;
-7,04808787367072E-6;
-5,09627540839653E-6;
-4,01559558806545E-6;
-4,23360892405806E-6;
-4,65325512879783E-6;
-3,6408503507737E-6;
-4,95066044654129E-7;
3,82398631473428E-6;
7,31902614402434E-6;
8,43521890405179E-6;
7,19662751374844E-6;
5,08516306489573E-6;
3,77869625903018E-6;
3,79303421395142E-6;
4,13727452212782E-6;
3,24680501856365E-6;
4,03885789866314E-7;
-3,53972679621912E-6;
-6,73988133761382E-6;
-7,76277911854167E-6;
-6,66038911541219E-6;
-4,84048253657408E-6;
-3,85033736775769E-6;
-4,08712459533471E-6;
-4,50262659357504E-6;
-3,54365295085011E-6;
-5,46414759448585E-7;
3,57334686048956E-6;
6,91473118554446E-6;
7,99659149078544E-6;
6,83627659933122E-6;
4,83622665395638E-6;
3,58940695491296E-6;
3,59267243044236E-6;
3,91771255960304E-6;
3,08963609507575E-6;
4,2723242805393E-7;
-3,27399666187704E-6;
-6,28357494003203E-6;
-7,25549818222519E-6;
-6,23927586203133E-6;
-4,55659161365429E-6;
-3,65696766664257E-6;
-3,90644561630285E-6;
-4,31287486898189E-6;
-3,41283584854362E-6;
-5,83437747710055E-7;
3,31006498966883E-6;
6,47493695816016E-6;
7,51300888001367E-6;
6,4355989108493E-6;
4,55823480864911E-6;
3,37976079522684E-6;
3,37403826768885E-6;
3,67860986140167E-6;
2,91498462354883E-6;
4,4229422546433E-7;
-3,00263978247527E-6;
-5,80951737846454E-6;
-6,72519523834039E-6;
-5,79629164323794E-6;
-4,25323300004572E-6;
-3,44275616885868E-6;
-3,69960605471114E-6;
-4,09292292943511E-6;
-3,25553750801521E-6;
-6,07691420142333E-7;
3,04022660008878E-6;
6,01194394769286E-6;
6,99886803545776E-6;
6,00696327784775E-6;
4,25988311972727E-6;
3,15600048675091E-6;
3,14312037788245E-6;
3,42642026127764E-6;
2,72801007326039E-6;
4,49973876762625E-7;
-2,73070236792991E-6;
-5,32760562516935E-6;
-6,18337420568908E-6;
-5,34141600458613E-6;
-3,93791739439459E-6;
-3,21410687568447E-6;
-3,4737207860144E-6;
-3,85068937002255E-6;
-3,07813328180548E-6;
-6,20679303708671E-7;
2,76900604540389E-6;
5,53637646925998E-6;
6,46665847090518E-6;
5,561129666704E-6;
3,94875194818741E-6;
2,92356238184986E-6;
2,90512372842973E-6;
3,16674920799921E-6;
2,53322009599666E-6;
4,51156241548753E-7;
-2,46240041186271E-6;
-4,84623019873176E-6;
-5,63981766393421E-6;
-4,88317645749044E-6;
-3,61711363061358E-6;
-2,97658828111622E-6;
-3,23503158788816E-6;
-3,59314141656729E-6;
-2,8862624877469E-6;
-6,23836397308207E-7;
2,50074065778709E-6;
5,05730016517527E-6;
5,92709554216718E-6;
5,10735211026848E-6;
3,63137183287035E-6;
2,68713244528596E-6;
2,66451789110288E-6;
2,90441397245019E-6;
2,33451900272092E-6;
4,46683756614935E-7;
-2,20119728103245E-6;
-4,37239599547937E-6;
-5,10274385770046E-6;
-4,42875954917377E-6;
-3,296316351624E-6;
-2,73500463015112E-6;
-2,98896200625456E-6;
-3,32634407979079E-6;
-2,68487304299005E-6;
-6,1852587271184E-7;
2,23900583187725E-6;
4,5823467017302E-6;
5,3892465229359E-6;
4,65349389260589E-6;
3,31331048694354E-6;
2,45070139290136E-6;
2,42509445199387E-6;
2,64349567049927E-6;
2,13524930968083E-6;
4,37367289490481E-7;
-1,94987631180565E-6;
-3,91184715914682E-6;
-4,57893282561376E-6;
-3,98413246281445E-6;
-2,98013272832737E-6;
-2,49344275656549E-6;
-2,74016879334028E-6;
-3,05552402699354E-6;
-2,47826022307888E-6;
-6,06022780065014E-7;
1,98668524417289E-6;
4,11783171722721E-6;
4,86067616606972E-6;
4,206143864869E-6;
2,99924198384117E-6;
2,21761293647466E-6;
2,19001851324663E-6;
2,38740477505209E-6;
1,93822938635226E-6;
4,23968573570143E-7;
-1,71061034435462E-6;
-3,469193603245E-6;
-4,0738590563068E-6;
-3,55414081621248E-6;
-2,67235875400689E-6;
-2,25533251535058E-6;
-2,49259893677628E-6;
-2,78512829632099E-6;
-2,27011184772934E-6;
-5,87517792753085E-7;
1,74604232436921E-6;
3,6688862926939E-6;
4,34757868956349E-6;
3,7707177983554E-6;
2,6930245542836E-6;
1,99063059251328E-6;
1,96188898835725E-6;
2,13894030246471E-6;
1,74580442333046E-6;
4,07199295039532E-7;
-1,48502718733138E-6;
-3,0480205070928E-6;
-3,59183591343511E-6;
-3,14263567873095E-6;
-2,37605178529396E-6;
-2,02350254473874E-6;
-2,24955292872906E-6;
-2,51888405146757E-6;
-2,06355052001519E-6;
-5,64111306279806E-7;
1,51879012922344E-6;
3,2395641498695E-6;
3,85490472418462E-6;
3,35158043910241E-6;
2,39777876560338E-6;
1,77198365271795E-6;
1,74279374838412E-6;
1,90035058606643E-6;
1,55988409546113E-6;
3,87719244742989E-7;
-1,27428252079172E-6;
-2,6510128558639E-6;
-3,13612853096442E-6;
-2,75257097917631E-6;
-2,09361309837424E-6;
-1,80023276432499E-6;
-2,01373393406976E-6;
-2,25986775427137E-6;
-1,8611824913609E-6;
-5,36808387888571E-7;
1,30615384976308E-6;
2,83297076062532E-6;
3,3865061702987E-6;
2,9521504760953E-6;
2,11596420986979E-6;
1,56342867759813E-6;
1,53435578203877E-6;
1,67338057980943E-6;
1,3819874384548E-6;
3,66136570988193E-7;
-1,07911127496983E-6;
-2,28005628565429E-6;
-2,70909290524985E-6;
-2,3861099130458E-6;
-1,82685215679282E-6;
-1,58732314462241E-6;
-1,78731316575673E-6;
-2,01055975068879E-6;
-1,66514525882308E-6;
-5,06521367846616E-7;
1,10893504114791E-6;
2,45136447595276E-6;
2,94524629661811E-6;
2,57500222345077E-6;
1,84944901932193E-6;
1,36629213234012E-6;
1,3377911132498E-6;
1,45934090242819E-6;
1,21328429439509E-6;
3,43005313611671E-7;
-8,99895375968892E-7;
-1,93634470509851E-6;
-2,31227442339953E-6;
-2,04472145730747E-6;
