1,173701872086E-6;
2,01025262224205E-6;
2,22011066166249E-6;
1,77863181204558E-6;
1,00955746802411E-6;
3,39956375139158E-7;
6,20421028345689E-9;
-6,5993406432007E-8;
-1,31252648321499E-7;
-3,70707258764575E-7;
-7,34444110513089E-7;
-1,00767473843276E-6;
-1,03068642537365E-6;
-8,67763358168645E-7;
-7,63699783594868E-7;
-9,13468332828229E-7;
-1,24272651300535E-6;
-1,40424748033517E-6;
-1,0237618965176E-6;
-1,58643356429489E-8;
1,28504506044738E-6;
2,30207228039049E-6;
2,58510678879984E-6;
2,10030118723379E-6;
1,2246852245548E-6;
4,57431764394827E-7;
7,54174837016391E-8;
-6,25345726308958E-9;
-8,19564501797019E-8;
-3,61073226945243E-7;
-7,86297758228032E-7;
-1,11056462574259E-6;
-1,15006672510198E-6;
-9,77438942822285E-7;
-8,71424694344243E-7;
-1,0540613989391E-6;
-1,44150888179735E-6;
-1,64065879244837E-6;
-1,2275213445852E-6;
-1,0337222589147E-7;
1,35849383496049E-6;
2,5122410802993E-6;
2,85291627945248E-6;
2,33932116886566E-6;
1,38753548017494E-6;
5,49841925717655E-7;
1,33056597044351E-7;
4,46887872324697E-8;
-3,86451025074293E-8;
-3,46958254454692E-7;
-8,17603961512643E-7;
-1,1800695559717E-6;
-1,23300368664077E-6;
-1,05494691111358E-6;
-9,49027688058077E-7;
-1,15675852594606E-6;
-1,58759141379524E-6;
-1,81567455835501E-6;
-1,38144845187806E-6;
-1,76360646632053E-7;
1,39921389786671E-6;
2,65105585745815E-6;
3,0355072247395E-6;
2,50568358986149E-6;
1,50423365916493E-6;
6,19887990156304E-7;
1,80125075411972E-7;
8,74782134547738E-8;
-1,02054123746457E-9;
-3,29341073692356E-7;
-8,31295826914239E-7;
-1,22065143716263E-6;
-1,2842495608821E-6;
-1,10441032261017E-6;
-1,00028614929813E-6;
-1,22622686648903E-6;
-1,6874075122871E-6;
-1,93670847030563E-6;
-1,49136544806687E-6;
-2,36063901464794E-7;
1,4120113945889E-6;
2,72817267262094E-6;
3,14413355033636E-6;
2,60879941907519E-6;
1,58057110273649E-6;
6,70152325935399E-7;
2,17612276390711E-7;
1,22771655376505E-7;
3,12474211491561E-8;
-3,09097243679023E-7;
-8,30086878003794E-7;
-1,2364620377121E-6;
-1,30823891123416E-6;
-1,12968259815388E-6;
-1,02873873228621E-6;
-1,26685246252205E-6;
-1,7470128251172E-6;
-2,01074740458584E-6;
-1,56277954619696E-6;
-2,83704807204871E-7;
1,40131923904823E-6;
2,75257145145549E-6;
3,18928468373488E-6;
2,65746454715515E-6;
1,62198472714748E-6;
7,03084641002782E-7;
2,46482397304093E-7;
1,51224563410912E-7;
5,8510904292892E-8;
-2,8699785590586E-7;
-8,16462723878475E-7;
-1,23134167031422E-6;
-1,30908706183367E-6;
-1,13434592931243E-6;
-1,03768345709125E-6;
-1,28272243892078E-6;
-1,77205178373177E-6;
-2,04431421979594E-6;
-1,60085416682575E-6;
-3,20480337605677E-7;
1,37118903111768E-6;
2,7325361505516E-6;
3,18066559108437E-6;
2,65983332733706E-6;
1,63352673666612E-6;
7,20979784126956E-7;
2,67668994868384E-7;
1,73482653442392E-7;
8,11333305882283E-8;
-2,63715855013812E-7;
-7,92688734352024E-7;
-1,2088044250666E-6;
-1,29056809360111E-6;
-1,12169709497239E-6;
-1,0301604197015E-6;
-1,27762088650142E-6;
-1,76775883576128E-6;
-2,04345904680569E-6;
-1,6103936350171E-6;
-3,47544015113747E-7;
1,32529537477141E-6;
2,67564086385201E-6;
3,12717657574915E-6;
2,62339951377284E-6;
1,6198640602989E-6;
7,25983235708937E-7;
2,82059676556381E-7;
1,90177466124994E-7;
9,94885223430753E-8;
-2,39838271686502E-7;
-7,60809295537211E-7;
-1,17205023902652E-6;
-1,25612670441292E-6;
-1,09474300242217E-6;
-1,00895512031334E-6;
-1,25501564060349E-6;
-1,73893425963979E-6;
-2,01374444018114E-6;
-1,59583248776589E-6;
-3,66005566898881E-7;
1,26694404730732E-6;
2,58876483274518E-6;
3,03691828369575E-6;
2,5549988853753E-6;
1,58526258743832E-6;
7,20074784240274E-7;
2,9050555741452E-7;
2,01918105703658E-7;
1,13950152423072E-7;
-2,1585560236397E-7;
-7,22650792706528E-7;
-1,12396097415687E-6;
-1,20887602868573E-6;
-1,05621412480234E-6;
-9,76598401121637E-7;
-1,21806643558899E-6;
-1,68995283755076E-6;
-1,96024122859294E-6;
-1,56123412240757E-6;
-3,76918938871639E-7;
1,19908057661637E-6;
2,47809694745341E-6;
2,91720594834121E-6;
2,46081979351203E-6;
1,5336039527681E-6;
7,05071832291377E-7;
2,9379869608619E-7;
2,09287978826445E-7;
1,24887422378364E-7;
-1,92187570759695E-7;
-6,79833802265767E-7;
-1,0671119892719E-6;
-1,15160700121798E-6;
-1,00856210647874E-6;
-9,3537250044409E-7;
-1,16962728373327E-6;
-1,62477146654512E-6;
-1,88754557383914E-6;
-1,510291662345E-6;
-3,81276160922535E-7;
1,12430599868006E-6;
2,34916362348139E-6;
2,77458823495009E-6;
2,34641058616738E-6;
1,46838248092824E-6;
6,82631032672564E-7;
2,9268097018447E-7;
2,12839652260131E-7;
1,32664974906895E-7;
-1,6917416486021E-7;
-6,33780031524942E-7;
-1,00378520678307E-6;
-1,0868000957704E-6;
-9,53970696660581E-7;
-8,8731426997104E-7;
-1,11225347334705E-6;
-1,54693996797505E-6;
-1,79978133741841E-6;
-1,44633327632817E-6;
-3,80007609817876E-7;
1,04489381654115E-6;
2,20684831707662E-6;
2,61487677807143E-6;
2,21671607793307E-6;
1,39272293012691E-6;
6,54247582180133E-7;
2,87843077686774E-7;
2,13097546566036E-7;
1,37635437806747E-7;
-1,47089439880777E-7;
-5,85724839998954E-7;
-9,35986103446398E-7;
-1,01664292477659E-6;
-8,94368809151602E-7;
-8,34228893659338E-7;
-1,04821345243065E-6;
-1,45961096533127E-6;
-1,70062405747267E-6;
-1,372341711458E-6;
-3,73975719709549E-7;
9,62816180655001E-7;
2,05543874250856E-6;
2,44318757523857E-6;
2,0760949509058E-6;
1,30939222205236E-6;
6,2126204855705E-7;
2,79915582575873E-7;
2,10544405885185E-7;
1,40135520532048E-7;
-1,26147439715147E-7;
-5,36728583907051E-7;
-8,65452920964353E-7;
-9,43040565604558E-7;
-8,31442981515285E-7;
-7,77701483067589E-7;
-9,79507418827445E-7;
-1,36556729718769E-6;
-1,59331510397111E-6;
-1,29095773598501E-6;
-3,6397744819104E-7;
8,7975352316489E-7;
1,89864763411141E-6;
2,26397014237627E-6;
1,9283533382899E-6;
1,22082190074947E-6;
5,84863230460265E-7;
2,69473931399564E-7;
2,05634056940677E-7;
1,40486397346228E-7;
-1,06509311132125E-7;
-4,87691351617257E-7;
-7,93681144849771E-7;
-8,67638074454495E-7;
-7,6665491891699E-7;
-7,1911021540483E-7;
-9,07875269434935E-7;
-1,26723561733991E-6;
-1,48069459152363E-6;
-1,2045079664846E-6;
-3,50738991109598E-7;
7,97125800750948E-7;
1,739659225916E-6;
2,08106277536516E-6;
1,7767849605943E-6;
1,12912427245306E-6;
5,46106656797673E-7;
2,57045532544847E-7;
1,98779165828305E-7;
1,38992495772606E-7;
-8,8285644740913E-8;
-4,39366206791805E-7;
-7,21938541966024E-7;
-7,91837168828114E-7;
-7,01252751274736E-7;
-6,59636480828053E-7;
-8,34818546900851E-7;
-1,16671177072571E-6;
-1,36521378455666E-6;
-1,11501256139497E-6;
-3,34921164923248E-7;
7,16111264074134E-7;
1,58116999387437E-6;
1,89772670067236E-6;
1,62419916310245E-6;
1,03611375028252E-6;
5,05902966551718E-7;
2,43095738177523E-7;
1,90358368371963E-7;
1,35938540116216E-7;
-7,15446713193456E-8;
-3,92367845058082E-7;
-6,51284918718752E-7;
-7,16817432216233E-7;
-6,36291825405562E-7;
-6,00285541597386E-7;
-7,6161608318206E-7;
-1,06578437679512E-6;
-1,24897444832563E-6;
-1,02421420029601E-6;
-3,17118663132587E-7;
6,37668501178551E-7;
1,4254275344324E-6;
1,71669932799358E-6;
1,47296597133723E-6;
9,43335164572931E-7;
4,65044196022709E-7;
2,28043066449446E-7;
1,80716937168809E-7;
1,31587053465423E-7;
-5,63244657326451E-8;
-3,47190102306063E-7;
-5,82586200445929E-7;
-6,43551743284065E-7;
-5,72647258945536E-7;
-5,41895232398711E-7;
-6,89341724934355E-7;
-9,65957507393859E-7;
-1,13374787339751E-6;
-9,33596177090228E-7;
-2,97863493328506E-7;
5,62556949976434E-7;
1,27426662428393E-6;
1,54023903072157E-6;
1,32504952958455E-6;
8,52070849409782E-7;
4,2420152436572E-7;
2,12255959409404E-7;
1,70159831992814E-7;
1,261797238138E-7;
-4,26272641811061E-8;
-3,04216810544933E-7;
-5,16540377595104E-7;
-5,72828443363975E-7;
-5,11032473226812E-7;
-4,85154334415938E-7;
-6,18882072005336E-7;
-8,68480136814663E-7;
-1,02100496251626E-6;
-8,44396402971339E-7;
-2,77624952390272E-7;
4,9136357389002E-7;
1,12915862569804E-6;
1,37016674490623E-6;
1,18204809674684E-6;
7,63384909944291E-7;
3,83945584801284E-7;
1,96059768567506E-7;
1,58962639808206E-7;
1,19938997805676E-7;
-3,04309764959843E-8;
-2,63737688640159E-7;
-4,53691305185431E-7;
-5,05271221100446E-7;
-4,52017454800466E-7;
-4,30615801166104E-7;
-5,50953688979118E-7;
-7,74362985172352E-7;
-9,11945784861485E-7;
-7,57640163208647E-7;
-2,56817375629711E-7;
4,24515504332143E-7;
9,91243204538062E-7;
1,20791597716878E-6;
1,04522707074072E-6;
6,78124873952145E-7;
3,44741408059704E-7;
1,79730810119335E-7;
1,47367249943395E-7;
1,13066257836652E-7;
-1,96925335932565E-8;
-2,25953171253343E-7;
-3,94444029522835E-7;
-4,41353004409929E-7;
-3,96036289953091E-7;
-3,78709795602153E-7;
-4,86121017709197E-7;
-6,84404030702372E-7;
-8,07525100359696E-7;
-6,74152953006701E-7;
-2,3579688730217E-7;
3,62304567260173E-7;
8,61366987568341E-7;
1,05456904617802E-6;
9,15555707446973E-7;
5,96956437042228E-7;
3,06968465540566E-7;
1,63507190237595E-7;
1,35585049929788E-7;
1,057391084876E-7;
-1,03519630153551E-8;
-1,90990360604751E-7;
-3,39087042101375E-7;
-3,81416289141638E-7;
-3,43411019391528E-7;
-3,29761302711083E-7;
-4,2481450854229E-7;
-5,99217713263975E-7;
-7,08475554216654E-7;
-5,94580303584157E-7;
-2,14872188727193E-7;
3,04906398560019E-7;
7,40121081228419E-7;
9,10903900799834E-7;
7,93746735145337E-7;
5,20378688533409E-7;
2,70926444259784E-7;
1,47588114506692E-7;
1,2379585710804E-7;
9,81188994358332E-8;
-2,33697591102697E-9;
-1,58913525516016E-7;
-2,87799840745845E-7;
-3,2569072608385E-7;
-2,94363187803872E-7;
-2,83995754192876E-7;
-3,67340018884528E-7;
-5,1924745094065E-7;
-6,15338316839061E-7;
-5,19411421185805E-7;
-1,94301226949042E-7;
2,52391663069232E-7;
6,27871328871206E-7;
7,77431678241061E-7;
6,80280976409292E-7;
4,48743601946243E-7;
2,36842669031402E-7;
1,32142022142282E-7;
1,12156880440014E-7;
9,0347133659522E-8;
4,43620001060907E-9;
-1,2973405870008E-7;
-2,40674983050129E-7;
-2,74304987662688E-7;
-2,49024859782428E-7;
-2,41559792852216E-7;
-3,13903985562183E-7;
-4,44790238366991E-7;
-5,28481394053212E-7;
-4,48997628878074E-7;
-1,74302197111376E-7;
2,04746742685074E-7;
5,24792951020503E-7;
6,54430305122708E-7;
5,75439292439548E-7;
3,8227492045944E-7;
2,04879514461316E-7;
1,17299899109566E-7;
1,00797589132863E-7;
8,25455508991516E-8;
1,00560408653531E-8;
-1,03412976428331E-7;
-1,97726896172735E-7;
-2,27303195273981E-7;
-2,07450291221274E-7;
-2,02525951202385E-7;
-2,64616958650096E-7;
-3,76018177731486E-7;
-4,48126547846949E-7;
-3,83560859740506E-7;
-1,55047438686405E-7;
1,61887564625817E-7;
4,30897515845223E-7;
5,41980795939798E-7;
4,79336078416172E-7;
3,21088558372259E-7;
1,75146803532473E-7;
1,03171370529656E-7;
8,98236900568438E-8;
7,48171230885539E-8;
1,46173098113961E-8;
-7,98767914174276E-8;
-1,58903019948304E-7;
-1,84657710667975E-7;
-1,69634736675055E-7;
-1,66905917104836E-7;
-2,19517596166888E-7;
-3,12996519779854E-7;
-3,74364340876878E-7;
-3,23223577561773E-7;
-1,36679739246493E-7;
0,00933355771519427;
0,0226300758852316;
0,0163731772746184;
0,00943348811320613;
0,0121696569913541;
0,00702631503504647;
0,00563490696161873;
0,00458278937776979;
0,000840567344390541;
0,00103241058780127;
-0,00119049851896167;
-0,00199207676469013;
-0,0028072832181776;
-0,00455381683488727;
-0,00488745965873041;
-0,00585607927849387;
-0,005941472965648;
-0,00618279550300477;
-0,00699384468518361;
-0,00792082285264087;
-0,00934879808953669;
-0,0102426186699254;
-0,0105181511371577;
-0,0101082100545521;
-0,00920745010116073;
-0,0084301742336843;
-0,00783035682784869;
-0,00745740213481873;
-0,00704799334946818;
-0,00641865612144774;
-0,00567549436012444;
-0,00495858046122252;
-0,0044531934552053;
-0,00409087239756516;
-0,00366393157538333;
-0,00302670913162177;
-0,0022284365454436;
-0,00157307554083251;
-0,00136129435085222;
-0,00166534857486338;
-0,00222566505671089;
-0,00258685925742475;
-0,00240649589858451;
-0,00165694217737567;
-0,000624564969660839;
0,000316769422278183;
0,00096372925723795;
0,00137592885973405;
0,00176518465150185;
0,00227848483779471;
0,0028736869969173;
0,00337814308277954;
0,0036648605143373;
0,00378434768402098;
0,00392466770667411;
0,00423333930566815;
0,00465394539450361;
0,00492893744190833;
0,00478522337844179;
0,00416196808872195;
0,00329842891766689;
0,00260134801655723;
0,00238424082509979;
0,00267151443086446;
0,0032092990994057;
0,00366547468525131;
0,00385882330052004;
0,00384599589146923;
0,00381735124668631;
0,00390621305888215;
0,00407637810180967;
0,00417457770971739;
0,00408909292580706;
0,00386588439981143;
0,00367389358770641;
0,0036454397625394;
0,00373076703256214;
0,00370111259062879;
0,00331381654742229;
0,00251548104917401;
0,00151957731499182;
0,000688180066028603;
0,000300052202695382;
0,00037662129291946;
0,000692127626385026;
0,000951493087107798;
0,000993800511817773;
0,000869226631565054;
0,000746344575043541;
0,000742960707551354;
0,000826536259736689;
0,000860893083697124;
0,000746743208831738;
0,000524343337156676;
0,000342604501833885;
0,000317864792102318;
0,000405471832431595;
0,000402759351852115;
9,50230154137741E-5;
-0,000565241872613161;
-0,0107236219844745;
-0,0246909571474264;
-0,0187062787210852;
-0,0116222821985033;
-0,0139971774988544;
-0,00853587852819934;
-0,00701188492233459;
-0,00596898716638207;
-0,00223030586054343;
-0,00231724674528682;
8,97761064327661E-5;
0,00103463171053748;
0,00186473037020953;
0,00353258699860444;
0,00382390651432781;
0,00488783146947809;
0,00516651325557682;
0,00552139232590251;
0,00617828751819403;
0,00664172343940595;
0,00746062794666836;
0,00787760459649078;
0,00802161495575696;
0,00784056602927724;
0,00735465854265313;
0,00695108594940742;
0,00655994624557735;
0,00626846064725126;
0,00594147933059434;
0,00548468291945481;
0,0049785686123286;
0,00445880681968546;
0,00403464094127023;
0,0036678331720546;
0,00326334884013561;
0,0027632222022106;
0,00218224757736812;
0,00167051817962192;
0,00136618629806011;
0,00130572200342017;
0,00137143801563157;
0,00134802017684808;
0,00107697962972403;
0,000543584693218802;
-0,000116323719559324;
-0,000724565629467143;
-0,00118432585471194;
-0,00152242660589156;
-0,0018402215947044;
-0,00220792041073525;
-0,00260529400920882;
-0,00294921924897552;
-0,00317775063891803;
-0,00331522177951743;
-0,00345291538136843;
-0,00366308883422035;
-0,00391872130564623;
-0,00409378281568374;
-0,00405388817628738;
-0,00376841245996039;
-0,00335506359079998;
-0,00301543488402632;
-0,0029060726040375;
-0,00304043488390989;
-0,00329291851417703;
-0,00349791998206564;
-0,00356464640073243;
-0,00352163197267916;
-0,00346519747426277;
-0,00346337678281718;
-0,00349850092257908;
-0,00349311874915462;
-0,00339047104686311;
-0,00321417264869812;
-0,00305113943049654;
-0,0029700042895838;
-0,00294584750799514;
-0,00286090598948744;
-0,00258938966822046;
-0,0021031122971317;
-0,00151288687019793;
-0,00100795152603609;
-0,000735067573978573;
-0,000706623398239658;
-0,000804757498947009;
-0,00087420505377102;
-0,000829820697563907;
-0,000698110474932614;
-0,000568844183152825;
-0,000505224731869917;
-0,000490274743057064;
-0,000451185305861456;
-0,000334510363514709;
-0,000161808322995759;
-1,36187758330603E-5;
4,66824105057824E-5;
4,29773420262788E-5;
8,56071205978352E-5;
0,000292272869100736;
0,00068971712597366;
0,00117535680710641;
0,00157380107917796;
0,00174933637232188;
0,00169124543555494;
0,00150978748341476;
0,00134982226575713;
0,00129097730280188;
0,00130921753812511;
0,00132186167770135;
0,00127092456855941;
0,00117274980811495;
0,00109534917403003;
0,00108871675725865;
0,00113336675867249;
0,0011552559786289;
0,00109626757108799;
0,00097897101993156;
0,000905765365543362;
0,000985713016628901;
0,0012437662007884;
0,00158548292292908;
0,00184933150270892;
0,00191050487746786;
0,00175950789104441;
0,00149829222655157;
0,00126055161733666;
0,00111977192528526;
0,00105395016471275;
0,000987135870658026;
0,000866138710508049;
0,000706115524971243;
0,000569655876663564;
0,000502717338127634;
0,000487405567139492;
0,000455758516583446;
0,000354473283660594;
0,000204268939707757;
9,89991876545878E-5;
0,000138513482880409;
0,000345510609181577;
0,000633341260985676;
0,000854025947768942;
0,000893310773202592;
0,000742488577199458;
0,000494726101429884;
0,000272100314688701;
0,000141576514008499;
8,28704504583301E-5;
2,64770227501464E-5;
-7,62854908203861E-5;
-0,000211731648813049;
-0,000322956439796061;
-0,000368267559547031;
-0,000364173226904393;
-0,000372752533993086;
-0,000442684047226375;
-0,000555256994685883;
-0,000625268189041768;
-0,000562143550721476;
-0,000345500129621519;
-5,42991167651317E-5;
0,000176885225968101;
0,000244214554726212;
0,00013970835214131;
-5,2210407158508E-5;
-0,000220978525595691;
-0,000306064316391659;
-0,000326013534336753;
-0,000343914632001949;
-0,000403946432696296;
-0,000493818506416364;
-0,000562161381048587;
-0,000571399251625413;
-0,000536575788424084;
-0,000513876230929978;
-0,000547327549537353;
-0,000620087564810271;
-0,000655334793859258;
-0,000571468563926822;
-0,000350232007993019;
-6,28994888975117E-5;
0,000169229893541338;
0,000252643522507349;
0,000180190050134238;
2,78614466307927E-5;
-0,000104901338345166;
-0,000163708442112465;
-0,000165261943125984;
-0,000166248191814576;
-0,000206322003624773;
-0,000274424259504615;
-0,000324448223150533;
-0,000322693854319172;
-0,000282649842972072;
-0,000254647758942295;
-0,000278081144362362;
-0,000337815822272935;
-0,00036505897028514;
-0,000286803541949597;
-8,67406972717387E-5;
0,000171410682857471;
0,000379300147632314;
0,000453484544948317;
0,000387677549155352;
0,000249779292647162;
0,000128545940551526;
7,2501563073976E-5;
6,67871931332796E-5;
6,09478793434095E-5;
1,97356593345345E-5;
-4,69395295614179E-5;
-9,80051473682008E-5;
-0,000103458099768407;
-7,52597476878353E-5;
-5,80885081978947E-5;
-8,68698808961925E-5;
-0,000148102648991535;
-0,000180696102894926;
-0,000119880566138269;
4,87959194021546E-5;
0,000268865512904143;
0,000444382296960143;
0,000501530877753874;
0,000434827547211866;
0,000304402873984303;
0,000188771355845708;
0,000130830960927179;
0,000117464604688697;
0,00010414433464785;
5,97987804041876E-5;
-6,79160872823025E-6;
-5,93874354512428E-5;
-7,15397681343104E-5;
-5,37851965370609E-5;
-4,54525057535818E-5;
-7,72526197293188E-5;
-0,000137278018876172;
-0,000171799714361857;
-0,000123909677297023;
1,90517250508614E-5;
0,000207472995735107;
0,000357146954956755;
0,000403350082555036;
0,000341314046962739;
0,000223761379269788;
0,000119465733408175;
6,59652129994534E-5;
5,17616991748758E-5;
3,7903810273964E-5;
-2,76324802055674E-6;
-6,25598709643441E-5;
-0,000109843457704312;
-0,000121548000706306;
-0,000106889177722174;
-0,000100172545843934;
-0,000128160209263245;
-0,000180473142164333;
-0,000210341947074041;
-0,000168280134210321;
-4,33272296453907E-5;
0,000121346996979996;
0,000252563957129008;
0,000294130742545675;
0,000241931160688494;
0,000141710264274377;
5,30819590972621E-5;
8,54605112312216E-6;
-1,88125186084882E-6;
-1,19264127708703E-5;
-4,50789796304064E-5;
-9,46970116379224E-5;
-0,00013344715056155;
-0,000141430958723087;
-0,000126626208274316;
-0,000118637981472947;
-0,000140535977257328;
-0,000183370117690881;
-0,000206871150102938;
-0,000168477095604802;
-5,88034814126068E-5;
8,50017066477694E-5;
0,000200054799230108;
0,000238120572177249;
0,000195692394523867;
0,000112017950727021;
3,81878051679203E-5;
2,02177341310862E-6;
-5,04377479475902E-6;
-1,1865629526421E-5;
-3,85174518647793E-5;
-7,93138688024681E-5;
-0,000110915570443351;
-0,000116354548556784;
-0,000102447893081429;
-9,4428903039507E-5;
-0,000111934146521307;
-0,000147330606045458;
-0,000166363842275597;
-0,000132874693861398;
-3,8924337981019E-5;
8,39262729419182E-5;
0,000182328971237604;
0,000215414884393936;
0,000180245299865604;
0,000110068290233585;
4,8107813333622E-5;
1,78710193290323E-5;
1,21140740431001E-5;
6,48062593348113E-6;
-1,59470320816312E-5;
-5,03606659495691E-5;
-7,70963290834491E-5;
-8,18790812410953E-5;
-7,04507388628017E-5;
-6,40154008110084E-5;
-7,90475673590267E-5;
-0,000109123290691115;
-0,000125514939085121;
-9,79426919499004E-5;
-1,9789559854419E-5;
8,25195925634136E-5;
0,00016439256275077;
0,000191719703128626;
0,000162081634680939;
0,0001032244708454;
5,11628705799134E-5;
2,54546515375461E-5;
2,00660736597372E-5;
1,47606215937245E-5;
-4,49288135417513E-6;
-3,36902453932119E-5;
-5,65290664388521E-5;
-6,11959575470504E-5;
-5,24504962180711E-5;
-4,7818333332283E-5;
-6,08899378065598E-5;
-8,63477532341922E-5;
-0,000100507746245404;
-7,84515265239229E-5;
-1,47664004091178E-5;
6,88022472317686E-5;
0,000135634759592849;
0,000157771109161016;
0,00013325982619641;
8,48380642540519E-5;
4,19624469934027E-5;
2,05994590927117E-5;
1,58130501277082E-5;
1,11056610496013E-5;
-4,93695149397463E-6;
0,00930439016762622;
0,0225817649767871;
0,0163206168694104;
0,00938771463685852;
0,0121274483060889;
0,00697337934390697;
0,00556121450799195;
0,00449743991163313;
0,000772776924239501;
0,00101575429727249;
-0,0104734044951578;
-0,0245175022727891;
-0,0190577877281491;
-0,0138841220400453;
-0,0169926153350104;
-0,0128521041024101;
-0,0115630639470337;
-0,010756024848816;
-0,00782863406845362;
-0,00896037755367236;
-0,00818483908609711;
-0,00829231755135353;
-0,00775604709728163;
-0,00559421405254248;
-0,00435698668159109;
-0,00261954462720435;
-0,00195068528770359;
-0,00134557250086515;
-0,000111272678069533;
0,0014852860066213;
0,00370928854190953;
0,00536242532522486;
0,00615774947932555;
0,0060953745632358;
0,00559189048990387;
0,0054256055512146;
0,00561112589684219;
0,00589077527161568;
0,00569035687086406;
0,00474714042230623;
0,00342886520325795;
0,0023391408702848;
0,00201154118256867;
0,0024028808588166;
0,00301050024730754;
0,00330823689682217;
0,00314457154757658;
0,0028945018521467;
0,00308243777727552;
0,00393014248633675;
0,00512550735971541;
0,00602317732592601;
0,00614062753124042;
0,00549990375775819;
0,00458607341328057;
0,00393414828570487;
0,0036983336017464;
0,00355914609863503;
0,00302415222533183;
0,00188039964135241;
0,00041081536246541;
-0,000799250985137282;
-0,00130503492573499;
-0,00113436333860833;
-0,000735400540914847;
-0,000592556573221319;
-0,000828756300012555;
-0,00112161076519818;
-0,000999176304220442;
-0,000265545331517348;
0,000796412817050703;
0,00161444013683243;
0,00175411091416646;
0,00123644107566569;
0,000491703305291796;
-6,18108545487413E-6;
-0,000120718837577603;
-0,00013894269622578;
-0,000499038596060342;
-0,00139121606940892;
-0,00256474289807944;
-0,00350023841044392;
-0,00380436807902118;
-0,00350283730715501;
-0,00299449996654569;
-0,00270989551844392;
-0,00275892621255408;
-0,00285728735740497;
-0,00258825050945411;
-0,00177953465596053;
-0,000681954380122985;
0,000198416071619157;
0,000477738306731906;
0,00017455806995216;
-0,000331757540032432;
-0,000623917004086295;
-0,000582588999168965;
-0,000461625825611616;
-0,000647424190824478;
-0,0013073589202194;
-0,00222039423845824;
-0,00292939450522973;
-0,00308861753767036;
-0,00272106866856013;
-0,00217763631705931;
-0,00183676186667684;
-0,0017951736118377;
-0,00180370404757278;
-0,00149721004682369;
-0,000724890709670239;
0,000293609655914972;
0,00111561170382064;
0,00140586424053066;
0,00118118438271886;
0,000773477627871471;
0,000547195936641042;
0,000606163962456917;
0,000728544876554804;
0,000577401116584923;
7,39506025180657E-6;
-0,000788025237537741;
-0,00140998763041147;
-0,00155715217628209;
-0,00124952312207644;
-0,000792382262935902;
-0,000514746128436479;
-0,00050060670116722;
-0,00053352858752457;
-0,000296568244046956;
0,000341156322735163;
0,0011894838830292;
0,00186538646727271;
0,00207928233691754;
0,00184642017489658;
0,00145427851187061;
0,0012178938259307;
0,00122667834288308;
0,0012888505017913;
0,00111376909915821;
0,000576644130866148;
-0,000154986063112625;
-0,000736819463038471;
-0,000909082306346481;
-0,000689029659206924;
-0,000339421084174859;
-0,000143230541043998;
-0,0001726787461171;
-0,00024197558723788;
-7,9230324778684E-5;
0,000427744558786925;
0,00111608129656373;
0,00165807645563138;
0,00180640586863079;
0,00157461749968161;
0,00120867332691908;
0,000977519455753233;
0,00095704140717066;
0,000983218364601732;
0,000808190506299803;
0,000325993580067026;
-0,000320124333376568;
-0,000836694939889216;
-0,00100266485663277;
-0,000832903391776792;
-0,000550939080294248;
-0,000397275753227985;
-0,000433398880648002;
-0,000502016869438932;
-0,000373036653556067;
4,83123132384545E-5;
0,000624224536932378;
0,00107791095436612;
0,00120086455027384;
0,00100488558908895;
0,000697504782985292;
0,000505084203413189;
0,000490984138395742;
0,00051669607502234;
0,000373664193372208;
-2,6871256077285E-5;
-0,000564147092191442;
-0,0009915637640983;
-0,00112374106962085;
-0,000973392389229162;
-0,00072802351046885;
-0,000589153250216516;
-0,000608430911060449;
-0,000654729389177683;
-0,000536299441376603;
-0,000174342022795627;
0,000316294621703123;
0,000705434924246741;
0,000820076476965604;
0,000670386190459495;
0,000428727659636781;
0,00028255163297682;
0,000283830865010626;
0,000317434136094683;
0,000210745044924009;
-0,000109285009016515;
-0,000542432738453933;
-0,000884867581134331;
-0,000983718941453096;
-0,000849675789869615;
-0,000637338976167219;
-0,00051263739946388;
-0,000518196609717785;
-0,000546644630657173;
-0,000441059454420171;
-0,000137107611003358;
0,000271286303627009;
0,000596343261599503;
0,000697333464381439;
0,000582959921001474;
0,000393704364268785;
0,000281781170865265;
0,000288924753101314;
0,000321283874453999;
0,00023887015844183;
-1,71097049302077E-5;
-0,000365030299988076;
-0,000639768506626667;
-0,000717839433724384;
-0,000608045762002519;
-0,000435170636969653;
-0,000332913172641889;
-0,000335691559361601;
-0,000357537879553125;
-0,000272923483032411;
-3,05277864705492E-5;
0,00029462408638259;
0,000552986386504614;
0,000632908947871558;
0,000541771639130491;
0,000391360609672521;
0,000302211883379056;
0,000306901477381385;
0,000330763753577243;
0,000263163589141268;
5,81070620387656E-5;
-0,000219515744082336;
-0,000439363411685917;
-0,000504332465938403;
-0,000421518564533829;
-0,000288938415850224;
-0,000211374668343427;
-0,000215873848892496;
-0,000235628148309855;
-0,000173208023616233;
1,10640256318783E-5;
0,000259061067768449;
0,000455401032651514;
0,000514390445234131;
0,000442194718726154;
0,000324958642265352;
0,000254948333239412;
0,000256590228873667;
0,000272347391551409;
0,000217747976830706;
5,81713122303742E-5;
-0,000156447997111017;
-0,000326782043178457;
-0,000379233168109483;
-0,000319384597043234;
-0,000221445819661933;
-0,000164490368354765;
-0,000169012971705194;
-0,000185223067052268;
-0,000140638357283643;
-5,92077343345506E-6;
0,00017577142938746;
0,000319311455385226;
0,000361967420969608;
0,000308794826752651;
0,000223221245402706;
0,000172501797364683;
0,00017387311161629;
0,000184956095632705;
0,000144393853310422;
2,75824547789231E-5;
-0,000128790280395782;
-0,000252804545987031;
-0,000291618919632973;
-0,000249485977201734;
-0,000179625311957154;
-0,000138452491948747;
-0,000140684947141685;
-0,000151502563471306;
-0,000120364286481725;
-2,70238546045499E-5;
9,85048524988984E-5;
0,000197649453082879;
0,000227809836087744;
0,000193045072995072;
0,000136851574931318;
0,000104572429334503;
0,000107170807122444;
0,00011556562999214;
8,86386322204886E-5;
1,05323252649983E-5;
-9,36804342523063E-5;
-0,000176064261532163;
-0,000201923623674073;
-0,000174343710092338;
-0,000128207830518193;
-0,000100146692384614;
-9,98235111256336E-5;
-0,000105450323572477;
-8,55859467574605E-5;
-2,78929080244191E-5;
4,90490373718892E-5;
0,000109747063922327;
0,000129080205455817;
0,000110227697863675;
7,93818089116528E-5;
6,28903748026656E-5;
6,63060369292854E-5;
7,21014281382713E-5;
5,67013200584081E-5;
1,18095737153211E-5;
-4,75776399487108E-5;
-9,42930210701998E-5;
-0,000109336648535202;
-9,47776404738503E-5;
-6,96474410021704E-5;
-5,34809418043798E-5;
-5,15634754361201E-5;
-5,33265655127905E-5;
-4,37731166783438E-5;
-1,73692322455294E-5;
1,71427532612153E-5;
4,41073418753832E-5;
5,34098371534192E-5;
4,74602321151516E-5;
3,75958251887803E-5;
3,38848680417744E-5;
3,72689911951701E-5;
4,01460790092813E-5;
3,39725859300685E-5;
1,691112826159E-5;
-4,68681113291718E-6;
-2,14310856433125E-5;
-2,77415114525666E-5;
-2,48149478664979E-5;
-1,81423339619934E-5;
-1,26632752238103E-5;
-9,9169113968818E-6;
-8,87691824286206E-6;
-8,53185181874942E-6;
-9,13052160195888E-6;
-1,10593901947902E-5;
-1,31401349469619E-5;
-1,27706308489967E-5;
-8,20872891888912E-6;
-7,09454910249982E-7;
6,02204630207915E-6;
9,04977199439226E-6;
9,1876153629093E-6;
1,06016995648648E-5;
1,68947817714839E-5;
2,70952030009608E-5;
3,5574490470377E-5;
3,65899925065631E-5;
2,96818194489082E-5;
2,07666972137935E-5;
1,71940689420952E-5;
2,05862253307409E-5;
2,39677105861668E-5;
1,66228743941779E-5;
-6,54320762312439E-6;
-3,89237115934976E-5;
-6,52655601611233E-5;
-7,23514503149927E-5;
-5,90136711324859E-5;
-3,70244401019065E-5;
-2,15661474857862E-5;
-1,87833319377033E-5;
-2,08319899921803E-5;
-1,29645893558277E-5;
1,29298255900211E-5;
4,97681364597661E-5;
7,94292141120108E-5;
8,67662985102613E-5;
7,19322921398051E-5;
5,03010149975428E-5;
3,94025538003173E-5;
4,34853592023988E-5;
4,8977437686847E-5;
3,54964649009329E-5;
-6,04423284667437E-6;
-6,32860083223403E-5;
-0,000109413921901452;
-0,000122508034474601;
-0,000101888284127975;
-6,79545013535275E-5;
-4,52777266121685E-5;
-4,26039664979328E-5;
-4,6320326346933E-5;
-3,30319106873047E-5;
9,03562399909302E-6;
6,77909538342523E-5;
0,000114916123153398;
0,000127603221750914;
0,000106505947623359;
7,46863704596187E-5;
5,79436996025471E-5;
6,26671150531355E-5;
6,99605073593686E-5;
5,16402640207047E-5;
-4,59824346580977E-6;
-8,17661410162789E-5;
-0,000143756748025376;
-0,000161673874268525;
-0,000135244990478962;
-9,17905208050149E-5;
-6,33853824202869E-5;
-6,08305448105974E-5;
-6,58827986506038E-5;
-4,82434608496652E-5;
6,76538075133529E-6;
8,30405337444425E-5;
0,000144137052923281;
0,000161156364350195;
0,000135152649591159;
9,5284883608632E-5;
7,3902011291399E-5;
7,90968641649142E-5;
8,77916498686328E-5;
6,56762583101302E-5;
-2,07707571357621E-6;
-9,48546741975774E-5;
-0,000169292631350577;
-0,000191064653856529;
-0,000160232979614084;
-0,000109509657616278;
-7,67870974628351E-5;
-7,44337915968411E-5;
-8,0596125063097E-5;
-5,96310971503576E-5;
5,36451935057009E-6;
9,51675352419756E-5;
0,000167056238119994;
0,000187444397307432;
0,000157697213024933;
0,000111650403029126;
8,66685065897013E-5;
9,21572359574959E-5;
0,000101873773509979;
7,68721431830931E-5;
4,19759708938157E-7;
-0,000104138851293786;
-0,000187990817168853;
-0,000212753064689768;
-0,00017875745617132;
-0,000122750238975442;
-8,69456619147285E-5;
-8,48490495211261E-5;
-9,19024596076132E-5;
-6,85016138539586E-5;
3,88157878055545E-6;
0,000103695219385811;
0,000183580291383099;
0,000206505308312929;
0,000174067341756304;
0,000123522448830114;
9,58937720791302E-5;
0,000101553447523122;
0,000111990197212571;
8,49370664311129E-5;
2,30201645365065E-6;
-0,000110627298431646;
-0,000201181758626069;
-0,00022813034495914;
-0,000192016770288364;
-0,000132427282631846;
-9,45835811627191E-5;
-9,27507739444937E-5;
-0,000100464188351858;
-7,53735800000777E-5;
2,14741977371083E-6;
0,000108913904775454;
0,000194368984189629;
0,000219126066013255;
0,000184944891545895;
0,000131400871258475;
0,000101986796189368;
0,00010773696983378;
0,00011865486356717;
9,03014464032598E-5;
3,70178850190431E-6;
-0,000114600536591872;
-0,000209469283080887;
-0,000237879054594131;
-0,000200534550542095;
-0,000138821634039925;
-9,98256689106966E-5;
-9,8244706367032E-5;
-0,000106402461782823;
-8,02599278468175E-5;
4,50492300019961E-7;
0,000111516608343484;
0,00020043494047061;
0,000226410874665147;
0,000191307102051071;
0,000136063542994804;
0,000105611650185559;
0,000111383451745067;
0,000122574229036407;
9,35663203976142E-5;
4,91409929341058E-6;
-0,000116176000540351;
-0,000213299136168937;
-0,000242543839935505;
-0,000204731440886593;
-0,000142150792239554;
-0,000102766440612122;
-0,000101429245680886;
-0,000109850540473316;
-8,32120987523876E-5;
-9,97317351235925E-7;
0,000112075980360387;
0,00020263345004971;
0,000229286108592713;
0,000193948702901326;
0,000138107008672401;
0,00010724729527731;
0,000112972009583155;
0,000124246657367233;
9,51238731722495E-5;
6,03968297316113E-6;
-0,000115642270342907;
-0,000213270226589377;
-0,000242820262304914;
-0,000205192094712198;
-0,00014281429604779;
-0,000103693732332278;
-0,00010259710734144;
-0,000111133700495083;
-8,44788798963097E-5;
-2,19936346269206E-6;
0,000110925078887536;
0,000201562392533054;
0,0002284193996063;
0,000193420131344901;
0,000137903350899507;
0,000107162227503198;
0,000112776664449808;
0,000123969802492329;
9,51802306581161E-5;
7,02275139758844E-6;
-0,000113407001634634;
-0,000210069234675522;
-0,0002394772885956;
-0,000202576744175424;
-0,000141295321445484;
-0,000102981062461787;
-0,000102119136523634;
-0,000110645320991198;
-8,43758021443242E-5;
-3,23802988318303E-6;
0,000108298255723439;
0,000197707132637205;
0,000224368029012264;
0,000190178877633536;
0,000135753884537152;
0,000105569770506904;
0,000111022449742088;
0,000121996883137081;
9,3911325344497E-5;
7,80594637576374E-6;
-0,000109843376951585;
-0,000204319024168892;
-0,000233208201399053;
-0,000197475101783313;
-0,000138018005402958;
-0,000100948728005286;
-0,00010030953578428;
-0,000108716610961063;
-8,31596827160981E-5;
-4,1543578965174E-6;
0,000104446217431184;
0,000191550060028421;
0,00021768276610374;
0,000184687475795504;
0,000131981173701641;
0,000102714100306986;
0,00010796545703879;
0,000118610695031715;
9,15307929145304E-5;
8,39199358650918E-6;
-0,00010523472802048;
-0,000196529385953296;
-0,000224587202557512;
-0,000190368498627407;
-0,00013331489927779;
-9,78365310189709E-5;
-9,74038533106918E-5;
-0,000105599743227532;
-8,10166359583334E-5;
-4,94058103466048E-6;
9,96392759079783E-5;
0,000183569750336125;
0,000208902880843747;
0,000177404340309077;
0,000126915872035863;
9,8853441613154E-5;
0,000103872789565188;
0,000114100570780021;
8,82639328817192E-5;
8,81459393303028E-6;
-9,98066555249203E-5;
-0,000187131799704212;
-0,000214106146779151;
-0,000181667969327533;
-0,000127466041140977;
-9,38437506637575E-5;
-9,35998964841964E-5;
-0,000101509606593184;
-7,8104264045132E-5;
-5,58219746425385E-6;
9,41257491567364E-5;
0,000174199832110952;
0,000198515219736783;
0,000168742795581489;
0,000120855715581049;
9,42193607888697E-5;
9,89825778914624E-5;
0,000108723285615666;
8,4309294707775E-5;
9,10029994155399E-6;
-9,37650034579652E-5;
-0,000176516936435884;
-0,000202210929772159;
-0,000171748862390766;
-0,000120731498987219;
-8,91597927455189E-5;
-8,9086789492736E-5;
-9,66513219831856E-5;
-7,45773215967338E-5;
-6,08130577265965E-6;
8,81112445456722E-5;
0,000163810688127918;
0,000186937716824774;
0,000159055813437382;
0,00011405131856875;
8,90038723468578E-5;
9,34927147687804E-5;
0,000102693424226958;
7,98302482257619E-5;
9,2606756942316E-6;
-8,73034733470809E-5;
-0,000165041828724137;
-0,000189307517783107;
-0,000160955079193695;
-0,000113353624621382;
-8,39647525399983E-5;
-8,40443234319667E-5;
-9,12185696485557E-5;
-7,05847123423815E-5;
-6,4517462240809E-6;
8,17656028836935E-5;
0,000152718147608485;
0,000174529079733669;
0,000148645947940161;
0,000106716065888367;
8,33695253019872E-5;
8,75715052266438E-5;
9,61946025091162E-5;
7,49662354455655E-5;
9,30281953394578E-6;
-8,05942303851784E-5;
-0,000153021338100646;
-0,00017575351637172;
-0,000149589987167089;
-0,000105547062065947;
-7,8418870949815E-5;
-7,86323749967414E-5;
-8,53831343675622E-5;
-6,62587979025625E-5;
-6,70756357800498E-6;
7,52356122610553E-5;
0,00014119704461777;
0,000161602329598104;
0,000137778077887919;
9,90378143487985E-5;
7,74603533523E-5;
8,13683015762784E-5;
8,93898314182655E-5;
6,98423400573275E-5;
9,23738221283229E-6;
-7,37818460749878E-5;
-0,000140723741922835;
-0,00016185449709156;
-0,000137912608919393;
-9,74945019953861E-5;
-7,26581596720221E-5;
-7,29869121654511E-5;
-7,92914419109946E-5;
-6,17120058029712E-5;
-6,85895920565078E-6;
6,86500829862121E-5;
0,000129486997273839;
0,00014843045837216;
0,000126684118518243;
9,11823876959544E-5;
7,14045297330681E-5;
7,50158422445075E-5;
8,24236238025863E-5;
6,45706257931193E-5;
9,07834341188045E-6;
-6,69854843846512E-5;
-0,000128374487545623;
-0,000147868363633081;
-0,000126141667633722;
-8,93500393970602E-5;
-6,67973944294207E-5;
-6,72231412891365E-5;
-7,30679795979145E-5;
-5,70400371623666E-5;
-6,91452034109913E-6;
6,21190236771064E-5;
0,000117792673055244;
0,000135246874893066;
0,00011556280288963;
8,3292456892449E-5;
6,53127161008372E-5;
6,86285860237181E-5;
7,54204082707954E-5;
5,92480870649895E-5;
8,83970034159172E-6;
-6,03038924949945E-5;
-0,000116162500412418;
-0,000134011974351985;
-0,000114461555454212;
-8,12441506875687E-5;
-6,0934439014355E-5;
-6,14397159749037E-5;
-6,6819508753547E-5;
-5,2325585838438E-5;
-6,88367761587306E-6;
5,5732855645298E-5;
0,000106284327389604;
0,000122246368250068;
0,00010458019779475;
7,54873139077458E-5;
5,92774680813536E-5;
6,23022839574886E-5;
6,84843511419878E-5;
5,39561525470244E-5;
8,53380426446858E-6;
-5,381865922036E-5;
-0,000104244654456863;
-0,000120465844303105;
-0,000103026313831006;
-7,32866151985255E-5;
-5,51524370978362E-5;
-5,57207551592395E-5;
-6,06370726852897E-5;
-4,76398336929768E-5;
-6,77691274498048E-6;
4,95639083861947E-5;
9,51006541016389E-5;
0,000109588357192506;
9,3872468368517E-5;
6,78648869083339E-5;
5,33748523180729E-5;
5,61157228822485E-5;
6,17013030920094E-5;
4,87622510356518E-5;
8,17172180936216E-6;
-4,75955034741488E-5;
-9,27483479859815E-5;
-0,000107377028378456;
-9,19618774178707E-5;
-6,55677757431699E-5;
-4,95204597421383E-5;
-5,0136416519616E-5;
-5,459662554895E-5;
-4,30426656065449E-5;
-6,60478038818669E-6;
4,36689862573945E-5;
8,43525903522779E-5;
9,74010445427581E-5;
8,35494907464392E-5;
6,0504505721578E-5;
4,76667388972807E-5;
5,0133044240713E-5;
5,51412177760036E-5;
4,37217998958157E-5;
7,76395955094524E-6;
-4,16852404559616E-5;
-8,17738015755907E-5;
-9,48617973585232E-5;
-8,13681990906921E-5;
-5,81597915426592E-5;
-4,40941947544185E-5;
-4,47435710216616E-5;
-4,87598348431174E-5;
-3,8583099774957E-5;
-6,37723119889919E-6;
3,80915699774734E-5;
7,41267020257994E-5;
8,57850690089492E-5;
7,36979374597855E-5;
5,34691505967008E-5;
4,22025479693128E-5;
4,44055144837382E-5;
4,88600251697957E-5;
3,88796135715119E-5;
7,32062901317063E-6;
-3,61252741222389E-5;
-7,1396858331728E-5;
-8,30088127665615E-5;
-7,13218944779112E-5;
-5,1118424677505E-5;
-3,89172255023019E-5;
-3,95870710993497E-5;
-4,31754589339778E-5;
-3,43003149856335E-5;
-6,10354896783849E-6;
3,28633412463626E-5;
6,448786898687E-5;
7,4816492010966E-5;
6,43837233832366E-5;
4,68071130021024E-5;
3,70204586976195E-5;
3,89727494289523E-5;
4,29009573885391E-5;
3,42708254280913E-5;
6,85119886807005E-6;
-3,09414127228856E-5;
-6,16720332226241E-5;
-7,18825142679144E-5;
-6,18791118562126E-5;
-4,44850926831222E-5;
-3,40225532077766E-5;
-3,47012365402502E-5;
-3,78809207989246E-5;
-3,0224863427989E-5;
-5,79249946661547E-6;
2,80054818626978E-5;
5,54816955036645E-5;
6,4549510004493E-5;
5,56542507455329E-5;
4,05534927812836E-5;
3,21484949025132E-5;
3,38638522090541E-5;
3,72958007839243E-5;
2,9921771818155E-5;
6,36428099821307E-6;
-2,61495536010743E-5;
-5,26353547472194E-5;
-6,15262862872834E-5;
-5,30781874406223E-5;
-3,82887172570137E-5;
-2,94339467719062E-5;
-3,01111714513926E-5;
-3,29037046533526E-5;
-2,63797156234641E-5;
-5,45236823847488E-6;
2,35299923909241E-5;
4,71369184540608E-5;
5,50191661134067E-5;
4,7540670503697E-5;
3,47317803302633E-5;
2,76057087970088E-5;
2,9098641059563E-5;
3,20662498059019E-5;
2,58509926193882E-5;
5,86760011897637E-6;
-2,17571134738078E-5;
-4,43068886286407E-5;
-5,19652644486286E-5;
-4,49419935406987E-5;
-3,25473374561476E-5;
-2,51670846937031E-5;
-2,58338795570197E-5;
-2,82625411842741E-5;
-2,27811166098353E-5;
-5,09086895860399E-6;
1,94410754846943E-5;
3,94677990836847E-5;
4,62440090972943E-5;
4,00601143035951E-5;
2,93554370441772E-5;
2,34034024762401E-5;
2,46889112513038E-5;
2,72252640410242E-5;
2,20702587693612E-5;
5,36805791296695E-6;
-1,77642570782964E-5;
-3,66930008047523E-5;
-4,32089033947821E-5;
-3,74800700454416E-5;
-2,72695564663914E-5;
-2,12305802629373E-5;
-2,18792583977845E-5;
-2,3968489225329E-5;
-1,94393777052347E-5;
-4,71504609593061E-6;
1,57364046222184E-5;
3,24763160234899E-5;
3,82285578743167E-5;
3,32177765043035E-5;
2,44293753896447E-5;
1,95462558031196E-5;
2,06395865897119E-5;
2,27783177059722E-5;
1,85855196228127E-5;
4,87176925712012E-6;
-1,41650771716608E-5;
-2,9788483479425E-5;
-3,52533694170659E-5;
-3,06906275972519E-5;
-2,24559237768547E-5;
-1,76269786022213E-5;
-1,82510882910987E-5;
-2,0025989966852E-5;
-1,63596535775411E-5;
-4,33125805023896E-6;
1,24082586221424E-5;
2,615417968696E-5;
3,09655361891719E-5;
2,70087871781559E-5;
1,99512741614993E-5;
1,60333259267629E-5;
1,69497678668248E-5;
1,87245292269471E-5;
1,53977380581151E-5;
4,38408686685925E-6;
-1,09486846883438E-5;
-2,35785381833805E-5;
-2,80837739898874E-5;
-2,45624305319039E-5;
-1,81002391843928E-5;
-1,43536972229591E-5;
-1,49479618754862E-5;
-1,6433869254291E-5;
-1,35426968460274E-5;
-3,94517728861633E-6;
9,4445148050645E-6;
2,04846127854379E-5;
2,4437897545617E-5;
2,14199067704961E-5;
1,59127715512438E-5;
1,28589574062918E-5;
1,36136465667359E-5;
1,50576628852391E-5;
1,2503655659047E-5;
3,90960247839484E-6;
-8,10022002599313E-6;
-1,80405788943578E-5;
-2,1676210705166E-5;
-1,90765081768412E-5;
-1,41907485931998E-5;
-1,14039034486988E-5;
-1,19641443963543E-5;
-1,31862614623908E-5;
-1,09855510246657E-5;
-3,56180281101104E-6;
6,82955939165596E-6;
1,54439868153576E-5;
1,86206577360253E-5;
1,64310742347086E-5;
1,23005521329599E-5;
1,0013605288231E-5;
1,06213791693716E-5;
1,1767073941193E-5;
9,89649389991275E-6;
3,45217762208159E-6;
-5,60173189384779E-6;
-1,31458410584659E-5;
-1,59995774181245E-5;
-1,42076875120956E-5;
-1,07112102199928E-5;
-8,76729591208022E-6;
-9,29035538869168E-6;
-1,02734444835518E-5;
-8,68218278627664E-6;
-3,18549530856407E-6;
4,54508635757051E-6;
1,100328859795E-5;
1,3482552247645E-5;
1,20168055600669E-5;
9,09734592414668E-6;
7,48460021930981E-6;
7,95986521390326E-6;
8,83856048515795E-6;
7,56660957863802E-6;
3,01498553022138E-6;
-3,43296668009727E-6;
-8,86082388902988E-6;
-1,10172055715974E-5;
-9,9259690629918E-6;
-7,64185857062756E-6;
-6,43080524894488E-6;
-6,91445483628519E-6;
-7,68258440185526E-6;
-6,62403992125511E-6;
-2,8199732125498E-6;
2,57083813649987E-6;
7,129439500911E-6;
8,98752505147687E-6;
8,14744700478936E-6;
6,28281431273882E-6;
5,25683442494597E-6;
5,61346154885328E-6;
6,25513504511169E-6;
5,50208223012932E-6;
2,60056223022316E-6;
-1,57204259616442E-6;
-5,14854858869348E-6;
-6,68829966019017E-6;
-6,19774280929477E-6;
-4,96024809949525E-6;
-4,37921890501E-6;
-4,82207287325325E-6;
-5,39840729790115E-6;
-4,80056615435719E-6;
-2,46835226835619E-6;
8,85227921639308E-7;
3,78644636951863E-6;
5,09603898039185E-6;
4,79028865222973E-6;
3,83434225164947E-6;
3,3133692467155E-6;
3,5646094870448E-6;
3,99770658800491E-6;
3,68923925099811E-6;
2,21085112427672E-6;
3,94259789943921E-9;
-1,96967721157783E-6;
-2,96920158498383E-6;
-2,9868574182106E-6;
-2,64201153197631E-6;
-2,5957404304831E-6;
-2,99716175930424E-6;
-3,40380134330995E-6;
-3,19966267179235E-6;
-2,13317411199963E-6;
-5,34111243462161E-7;
9,36409461430879E-7;
1,76621924374476E-6;
1,91053483868138E-6;
1,7277346788592E-6;
1,6359652218157E-6;
1,79438105290476E-6;
2,0456798650518E-6;
2,11311521304891E-6;
1,84725060339316E-6;
1,31840020989882E-6;
7,16523256977011E-7;
1,85500030467328E-7;
-2,55563577296732E-7;
-6,61522035143743E-7;
-1,0624840102114E-6;
-1,42249722959115E-6;
-1,68035182642873E-6;
-1,8080912548182E-6;
-1,81644797143893E-6;
-1,70986219165555E-6;
-1,45960570319311E-6;
-1,04515703526325E-6;
-5,27857290067044E-7;
-6,21896858381024E-8;
2,05554644751657E-7;
2,82979329123826E-7;
3,77493891676749E-7;
7,57870015612521E-7;
1,51066845781495E-6;
2,39481222295587E-6;
2,95134857502864E-6;
2,82202479117306E-6;
2,03468721285163E-6;
1,0075389521569E-6;
2,39099266637462E-7;
-8,01019329766867E-8;
-2,08801341728802E-7;
-6,11842193979843E-7;
-1,51969115653251E-6;
-2,6646306039384E-6;
-3,44083080700205E-6;
-3,3818066573651E-6;
-2,56145109019737E-6;
-1,56107322601581E-6;
-9,97362822340625E-7;
-9,89865063441978E-7;
-1,02893886290026E-6;
-3,92866900951849E-7;
1,20156604676715E-6;
3,25636779778157E-6;
4,77596679281721E-6;
4,98659276162634E-6;
3,92254569969969E-6;
2,39168856062867E-6;
1,32785209852635E-6;
1,04837974046005E-6;
1,03054073350192E-6;
4,03553815242585E-7;
-1,2439727769666E-6;
-3,42061329995951E-6;
-5,04616081629839E-6;
-5,28722910841102E-6;
-4,22671757917273E-6;
-2,79457265130894E-6;
-1,9923672664173E-6;
-2,04451851635095E-6;
-2,1958278732594E-6;
-1,35567697418453E-6;
9,20015094291951E-7;
3,92565363616025E-6;
6,23082266661976E-6;
6,72475257446066E-6;
5,44619572621574E-6;
3,51723640282588E-6;
2,22259631226773E-6;
1,98136096287704E-6;
2,05746646761234E-6;
1,25276002220234E-6;
-9,89955524217205E-7;
-3,99933097893878E-6;
-6,31364672959209E-6;
-6,80410063701371E-6;
-5,5595201857723E-6;
-3,78800231452288E-6;
-2,79883578880593E-6;
-2,90114843103658E-6;
-3,14518015477329E-6;
-2,1471028591258E-6;
6,65738971015682E-7;
4,42442241915681E-6;
7,3551678725406E-6;
8,08082730827244E-6;
6,64287692299555E-6;
4,4099303557925E-6;
2,94187397031714E-6;
2,73705684940689E-6;
2,89156188045819E-6;
1,95039759181123E-6;
-7,57935500095215E-7;
-4,42141980022864E-6;
-7,2800654381837E-6;
-7,97379017277892E-6;
-6,59469790793998E-6;
-4,56600929798922E-6;
-3,43569117028569E-6;
-3,57947154877615E-6;
-3,89852062932439E-6;
-2,78341606883052E-6;
4,38165763009196E-7;
4,77339672808348E-6;
8,18668193564505E-6;
9,09746878357132E-6;
7,54849596690864E-6;
5,09469445265059E-6;
3,50372542322318E-6;
3,33324417956698E-6;
3,55198446086187E-6;
2,51085647106789E-6;
-5,47893235848533E-7;
-4,70645914721698E-6;
-7,98059349284507E-6;
-8,83597200145065E-6;
-7,36572339144785E-6;
-5,15234236329798E-6;
-3,92121957008704E-6;
-4,0985476667417E-6;
-4,47667394752859E-6;
-3,28044608821402E-6;
2,36477534150016E-7;
4,99213368408986E-6;
8,76116852643258E-6;
9,81530942265073E-6;
8,19733054283715E-6;
5,59538954276799E-6;
3,92551742634179E-6;
3,78709745515334E-6;
4,05725063921646E-6;
2,94813184090102E-6;
-3,59529569970305E-7;
-4,87286020874716E-6;
-8,44854984659173E-6;
-9,42831995302364E-6;
-7,90444841542811E-6;
-5,56964962602888E-6;
-4,27290226780508E-6;
-4,47662321657155E-6;
-4,89958345162175E-6;
-3,65342934086053E-6;
5,96368684178987E-8;
5,09891130764804E-6;
9,1123407382114E-6;
1,02726978389872E-5;
8,62179261667153E-6;
5,93465644892486E-6;
4,22381035293643E-6;
4,11503652217147E-6;
4,42508434166706E-6;
3,27569631276582E-6;
-1,9230620441047E-7;
-4,93777240998853E-6;
-8,71520747442917E-6;
-9,78628608004104E-6;
-8,24089739884001E-6;
-5,83933468855604E-6;
-4,50730598572478E-6;
-4,73099549135472E-6;
-5,18617310814871E-6;
-3,91689364289098E-6;
-9,35529830047244E-8;
5,11067531986473E-6;
9,27166865218375E-6;
1,05055165974153E-5;
8,85226609274624E-6;
6,13377899932131E-6;
4,41424414922695E-6;
4,33262239139917E-6;
4,67230370781662E-6;
3,50639968342836E-6;
-4,54866472458879E-8;
-4,91703846665902E-6;
-8,80967336000146E-6;
-9,94294847863612E-6;
-8,40313722293572E-6;
-5,98145250632293E-6;
-4,63999200410035E-6;
-4,87793014017724E-6;
-5,35424392272178E-6;
-4,08457029627328E-6;
-2,24426199825959E-7;
5,04299920340165E-6;
9,26828300462849E-6;
1,05470608403597E-5;
8,91699766467977E-6;
6,21260403742864E-6;
4,51147087535497E-6;
4,45446623197255E-6;
4,81471659765481E-6;
3,65238865585847E-6;
8,18284946589459E-8;
-4,82517532062807E-6;
-8,75881731017278E-6;
-9,928918694553E-6;
-8,41718736726088E-6;
-6,01463642057979E-6;
-4,68545789899433E-6;
-4,93259466477098E-6;
-5,42041210458917E-6;
-4,16933520669925E-6;
-3,34410148173165E-7;
4,91007591039331E-6;
9,12892984203823E-6;
1,04279722211816E-5;
8,84203154044696E-6;
6,18949065135151E-6;
4,529107331491E-6;
4,49419078565157E-6;
4,86707585587341E-6;
3,72505031376691E-6;
1,90669360167152E-7;
-4,67536252441952E-6;
-8,58723345050922E-6;
-9,7722944198007E-6;
-8,30697832549618E-6;
-5,9560634861824E-6;
-4,65710233688291E-6;
-4,90902034878578E-6;
-5,40005399671109E-6;
-4,18316333226908E-6;
-4,25003591980289E-7;
4,72473600905545E-6;
8,8779690352836E-6;
1,01762306978445E-5;
8,65119840846076E-6;
6,08128497634455E-6;
4,47970851302918E-6;
4,46438743458821E-6;
4,84303227560655E-6;
3,73498345221597E-6;
2,82166883128151E-7;
-4,4794769477878E-6;
-8,31726188516763E-6;
-9,49865932527419E-6;
-8,09433776891802E-6;
-5,82144566705106E-6;
-4,56721703603948E-6;
-4,82009220681771E-6;
-5,30730365091469E-6;
-4,13710828648725E-6;
-4,9774354489654E-7;
4,4984733841039E-6;
8,53740865083155E-6;
9,81717906197475E-6;
8,36612556288201E-6;
5,90332337855453E-6;
4,3747546171609E-6;
4,3766087675506E-6;
4,75512495497268E-6;
3,6919690607621E-6;
3,57520767333825E-7;
-4,24812482226519E-6;
-7,96902537430238E-6;
-9,13112683893661E-6;
-7,79902970456173E-6;
-5,62504003723657E-6;
-4,42698306852634E-6;
-4,67754357932636E-6;
-5,15504195044683E-6;
-4,04129604102801E-6;
-5,54178307752991E-7;
4,24149887488526E-6;
8,12696229570972E-6;
9,37358486145346E-6;
8,0062834369393E-6;
5,66946146722364E-6;
4,22467225305731E-6;
4,24137106504634E-6;
4,61478137038009E-6;
3,6049694505164E-6;
4,17978428974709E-7;
-3,99068853581775E-6;
-7,56049922302051E-6;
-8,69040475897303E-6;
-7,43879425687065E-6;
-5,37967810689286E-6;
-4,24649762042697E-6;
-4,49198428015982E-6;
-4,95492545734481E-6;
-3,90493749887336E-6;
-5,95854084867835E-7;
3,96279430009502E-6;
7,66413969122846E-6;
8,8657306102711E-6;
7,58905675265714E-6;
5,39210974529372E-6;
4,03884390120118E-6;
4,06817432350583E-6;
4,43234117669199E-6;
3,48213616723937E-6;
4,64810015084775E-7;
0,00932971865522126;
0,0226226222322664;
0,0163645423959233;
0,00942606675369923;
0,0121642949681722;
0,00702213252888824;
0,00563054420345218;
0,00457799263850905;
0,000836763752770859;
0,00103176808197353;
-0,0105202033578399;
-0,0246145181315682;
-0,0191715626930445;
-0,0139796476697723;
-0,0170516344918238;
-0,0128782423827665;
-0,0115721688722686;
-0,0107609813016609;
-0,00783074593356294;
-0,00895259663192024;
-0,00816187786445157;
-0,00825756031726578;
-0,00771902319812722;
-0,00556142667101594;
-0,00432512626468655;
-0,00257819602108879;
-0,00189324572118252;
-0,00127943499343713;
-5,80195423564168E-5;
0,00150138551562018;
0,00367680476719148;
0,00529104246101695;
0,0060731445869575;
0,0060243978182244;
0,00554858851451434;
0,00540732189355288;
0,00560584262720111;
0,0058886196571262;
0,00569013443577242;
0,00475395416691872;
0,0034465894863301;
0,00236530287366583;
0,00203921700795865;
0,00242746545142518;
0,0030346339473331;
0,00333968819697322;
0,00318812892974755;
0,00294453159166527;
0,00312287689013495;
0,00394306020921818;
0,00510250644685804;
0,00597137654542493;
0,00607882913682365;
0,00544774784601145;
0,00455388449218741;
0,00392012433864976;
0,00369384087287263;
0,00355698071266787;
0,00302323272481813;
0,00188413017046815;
0,000421833643371877;
-0,000782617188161208;
-0,00128742658943328;
-0,00111872825553117;
-0,000719695460169223;
-0,000571340492935397;
-0,000798829249385467;
-0,00108705302788165;
-0,000971198390681215;
-0,000256511682463045;
0,000780766526529715;
0,00157898331530116;
0,00171161830870124;
0,0012002302684681;
0,000468829103237151;
-1,67845566165293E-5;
-0,000124732429025002;
-0,000141236371472439;
-0,000500587897114737;
-0,00139009299176215;
-0,00255938833940603;
-0,00349163558454503;
-0,00379518471251333;
-0,00349459569230524;
-0,0029856906272259;
-0,0026971093619609;
-0,00274034462742145;
-0,00283563631412469;
-0,00257052022114601;
-0,00177325330697946;
-0,000690547653829269;
0,000177863108753214;
0,000452767416857468;
0,000152997071180067;
-0,000345698909180362;
-0,000630679179133223;
-0,000585304272060306;
-0,000463144592999277;
-0,00064862339836386;
-0,00130757842705839;
-0,0022190049119074;
-0,00292679282741014;
-0,0030857843876731;
-0,00271831382799897;
-0,0021739214986734;
-0,00183043102386021;
-0,00178559388093896;
-0,00179243093092903;
-0,00148760104365146;
-0,000720315939662519;
0,000291709860791944;
0,0011084760784004;
0,00139654554308442;
0,00117280032673342;
0,000767792632786442;
0,000544296475160282;
0,000605094190069133;
0,000728184899125165;
0,000576968343745283;
6,47774574022409E-6;
-0,000789586770251505;
-0,00141209400329698;
-0,00155935836081489;
-0,00125111906243238;
-0,000792738570894504;
-0,000513698006559623;
-0,000498523235891646;
-0,000530962814389344;
-0,000293786571092103;
0,000344316693591414;
0,00119327014054497;
0,00186962087406466;
0,00208321871321003;
0,00184918910450266;
0,00145557112997322;
0,00121823529523565;
0,00122694808174031;
0,00128939378175973;
0,00111389431738491;
0,00057504865108214;
-0,000159119847763215;
-0,000742978379567111;
-0,000915633419161412;
-0,000694418180537629;
-0,000343367665995353;
-0,00014682024690327;
-0,000177113700992302;
-0,000246961038395698;
-8,24393397099622E-5;
0,000429433562990251;
0,0011243294796111;
0,00167152757832215;
0,00182114739248177;
0,00158645561973282;
0,0012155670912672;
0,000980352224897505;
0,000958215325655332;
0,000984300121873721;
0,000808574859285831;
0,000323650841147933;
-0,000326551229851129;
-0,000846354351206105;
-0,00101295305927999;
-0,000841580420200762;
-0,000558022082048552;
-0,000404880330661564;
-0,000443407601204741;
-0,000513429799610518;
-0,000381388582195579;
4,85774352551235E-5;
0,000635931470808951;
0,00109874027455504;
0,00122431176447231;
0,00102403446879646;
0,000708892087005379;
0,000509878068889973;
0,0004928249225719;
0,000518149324058138;
0,000374205061644747;
-2,98526473645064E-5;
-0,000572441065048239;
-0,00100404891300584;
-0,00113703940935372;
-0,000984722980679852;
-0,000737651597900241;
-0,000600027141133918;
-0,000622976656427798;
-0,000671372046837577;
-0,000548847973031286;
-0,00017528061802001;
0,000330727330833794;
0,00073214995261881;
0,000850495234314386;
0,000695412925519491;
0,000443756427178236;
0,000288969494053123;
0,000286260071092844;
0,000319238095094967;
0,000211472940352627;
-0,00011269208101112;
-0,000552103306596239;
-0,000899471983289412;
-0,000999280727076947;
-0,000863001656663618;
-0,000648898208358886;
-0,000526033377742087;
-0,000536276338344559;
-0,00056737539279406;
-0,000456894573344992;
-0,000138997246607544;
0,00028783653104392;
0,000627648028402077;
0,000733203658102257;
0,000612606418692162;
0,000411629319336747;
0,000289532535610024;
0,00029187814953012;
0,000323421011136619;
0,000239808084141848;
-2,07623710996789E-5;
-0,000375655560109523;
-0,00065588266441223;
-0,000735023121264478;
-0,00062280669802128;
-0,000448142088942518;
-0,000348195161302928;
-0,000356443103862072;
-0,000381372992047917;
-0,000291269133760916;
-3,31785322817487E-5;
0,000312714694785501;
0,000587690404451763;
0,000672838241527603;
0,000574875405456224;
0,000411472256611011;
0,000310989658172067;
0,00031027245432665;
0,000333168921718343;
0,000264281934356096;
5,43173184374437E-5;
-0,000230774222379986;
-0,000456500290250991;
-0,000522621900235645;
-0,000437268390563277;
-0,000302909851435748;
-0,000228024433837097;
-0,000238577121241368;
-0,000261738121203233;
-0,000193415740867349;
7,78607471927891E-6;
0,000278151847968103;
0,000492424965109267;
0,000557122160461751;
0,000477701423629759;
0,000346601612102877;
0,000264452307343573;
0,000260256840214696;
0,000274937210193473;
0,000218996109894411;
5,43158601540526E-5;
-0,000168081041977772;
-0,000344536873882955;
-0,000398196100503329;
-0,00033574945600161;
-0,000236069789442833;
-0,000182064583025894;
-0,000193045397943763;
-0,000212887260106834;
-0,000162143286157502;
-9,70813113729263E-6;
0,00019539363628118;
0,000357717212466142;
0,00040640893282955;
0,000345787863751385;
0,000245826401092474;
0,000182472734325935;
0,000177732549567452;
0,0001876626041485;
0,000145732938270096;
2,37283085120282E-5;
-0,000140568742585868;
-0,000270821463948603;
-0,000310874826590326;
-0,00026613429140428;
-0,000194591101730971;
-0,00015655559294701;
-0,000165494426653072;
-0,000180082928855125;
-0,000142662009388431;
-3,12015329766961E-5;
0,00011827154627109;
0,00023664468468286;
0,000273034310945532;
0,000230747773122802;
0,000159940347658716;
0,00011479807553851;
0,0001111455141049;
0,000118341330517786;
9,00457068487665E-5;
6,74622240979389E-6;
-0,000105399897610752;
-0,000194031224665936;
-0,000221139515156524;
-0,00019098376089255;
-0,000143240536422572;
-0,000118430243556308;
-0,000124927151300853;
-0,000134390164997028;
-0,000108233623910759;
-3,23468246539504E-5;
6,86423745523024E-5;
0,000148667315200423;
0,000174306892628955;
0,000147985176007905;
0,000102551335239164;
7,31934566010787E-5;
7,03329541426113E-5;
7,4908589678834E-5;
5,81587501020531E-5;
8,14855875208543E-6;
-5,90660150663169E-5;
-0,000111947969802036;
-0,000128232995144932;
-0,000111164198069081;
-8,45150192307906E-5;
-7,16498637177647E-5;
-7,6552100847212E-5;
-8,21540368591504E-5;
-6,63944385527063E-5;
-2,19995667607183E-5;
3,6299080742531E-5;
8,23967797221382E-5;
9,79837346232923E-5;
8,47214211646687E-5;
6,05050933544482E-5;
4,41128774426236E-5;
4,12913197263446E-5;
4,29492073247618E-5;
3,54612731014808E-5;
1,34174514805237E-5;
0,00931762697317825;
0,0225911670459573;
0,0163266448384836;
0,00939234642508142;
0,0121367356413015;
0,00699569207597681;
0,00560036466760526;
0,00454550887319471;
0,00080968563362806;
0,00101853906230777;
-0,00118299619845115;
-0,00196789287428928;
-0,00277652824606379;
-0,00452558255502983;
-0,0048656706667458;
-0,00583985592776414;
-0,00592820086444264;
-0,00617053483095453;
-0,00698147493084095;
-0,00790710547956771;
-0,0186658727139729;
-0,0328534860422889;
-0,0268722734930892;
-0,0195272633131179;
-0,0213702988817687;
-0,0154565289654622;
-0,013468472275321;
-0,0120437157462056;
-0,00789361818319071;
-0,00746235643501316;
-0,00450626085098255;
-0,00299605835943014;
-0,00167654811316283;
0,000438883963061595;
0,00120806096533283;
0,00281747733451115;
0,00369806917195983;
0,00459152749014042;
0,00562102915458043;
0,00626530911338946;
0,00716284063155995;
0,00771963277409611;
0,00818173961942246;
0,0085086768297529;
0,0086198466286996;
0,00876982006125743;
0,00881472505699016;
0,00885589481829607;
0,00882779617209906;
0,00868639184164215;
0,00850260035671668;
0,008261280058027;
0,0080352908253541;
0,00780667467989408;
0,00754124515232416;
0,00722405042611619;
0,00684346609308204;
0,00645825014326459;
0,00611491299605435;
0,0058334911239476;
0,00558243661886669;
0,0052884745951435;
0,00490261606904399;
0,00442125628284109;
0,00389592195357616;
0,00339095263278161;
0,00293603558722149;
0,00251489299727826;
0,00208389445764721;
0,00161851970505447;
0,00113658252237592;
0,000684694829941142;
0,000300078485652484;
-2,21947255517811E-5;
-0,000323060092843515;
-0,000642464378932661;
-0,000980476029375067;
-0,00129125027729117;
-0,00151825169165483;
-0,00164234023230545;
-0,00170460534676928;
-0,00178270464878748;
-0,0019377240358884;
-0,00217256303437617;
-0,00243373688000588;
-0,00265485527705627;
-0,00280640177262998;
-0,0029126825960104;
-0,00302415263434011;
-0,00316980092991816;
-0,00333014869881789;
-0,00345306313631989;
-0,00349830138646657;
-0,00347224679222646;
-0,0034224908133742;
-0,0033960494918988;
-0,00339637261143959;
-0,00337660652146391;
-0,00327706528031202;
-0,00307773130437371;
-0,0028227131177682;
-0,00259500758974501;
-0,00245976227770324;
-0,00242000618054929;
-0,00241929020492185;
-0,00238832809499602;
-0,00229784713444061;
-0,00217579965017982;
-0,0020769213137634;
-0,00203169236553396;
-0,00201793589075789;
-0,00197848780439939;
-0,00186931438508875;
-0,00169675718948371;
-0,00151172959221091;
-0,00136510936341477;
-0,00126186110221798;
-0,0011535407802645;
-0,000977502927613245;
-0,000711985703096927;
-0,0004018031908861;
-0,000132095604324751;
3,06510028841184E-5;
8,43486871029726E-5;
8,81232402255519E-5;
0,000113623458797705;
0,000190393244577978;
0,000288688844082427;
0,000351762912821839;
0,000349067723270656;
0,000305395978008781;
0,000281931980189201;
0,000325837841046043;
0,000431435647400392;
0,000546254670558395;
0,000617347056737861;
0,000638928153947937;
0,000660403821445802;
0,000746280047303657;
0,000919713072803887;
0,00113614736973677;
0,00131003106443921;
0,00137482122059305;
0,00132930753427026;
0,00123402795718263;
0,00116157014220069;
0,00114124569743888;
0,00114217570061812;
0,00110664814041821;
0,00100436687447154;
0,000861796569002513;
0,000742424298282503;
0,000695154670982642;
0,000714734118623581;
0,000747911063060698;
0,000740511524084476;
0,000685871050711126;
0,00063319838481485;
0,000647330462244511;
0,000751956113417785;
0,000903070498708992;
0,00101569061220957;
0,00102385222121284;
0,000926755399917744;
0,000784904824921183;
0,000670290454486989;
0,000611276589020694;
0,000576152505921915;
0,000506903606103204;
0,00037355352649355;
0,00020326146162367;
6,0213638842923E-5;
-6,23116118007257E-6;
-1,18273843587399E-6;
2,19417839523319E-5;
8,44763839008066E-6;
-4,92400292344866E-5;
-0,000103046298092085;
-8,9035504113797E-5;
1,63588638727618E-5;
0,000170013891796336;
0,00028844216098712;
0,000306914131357031;
0,000224791841967223;
0,000101500311891263;
7,33019561417235E-6;
-3,06986424365058E-5;
-4,46641826211324E-5;
-9,21165207041713E-5;
-0,000202442751312971;
-0,00034839345655693;
-0,000466206431239254;
-0,000506920257066238;
-0,000475501024188387;
-0,000424774335078959;
-0,000409116363784241;
-0,000436782854718546;
-0,00046135933285741;
-0,000420590761233865;
-0,000291342948218836;
-0,000115358872152127;
2,63539567602858E-5;
7,10581555058303E-5;
1,82885483961162E-5;
-7,42549280648358E-5;
-0,000138670654354955;
-0,000149395659063631;
-0,000138287782951055;
-0,000161611419362207;
-0,000247769366645444;
-0,00036975971858532;
-0,000465018105732447;
-0,000485536642415569;
-0,000435998131843536;
-0,000367878670794923;
-0,000334413833087972;
-0,000344223463747358;
-0,00035286510977398;
-0,000300296983743056;
-0,000163984520942738;
1,61831846078627E-5;
0,000162535275417619;
0,000214992200478239;
0,000173320086041005;
9,30216380906289E-5;
3,91010300599518E-5;
3,56173580077944E-5;
5,14399252784448E-5;
3,2270342912109E-5;
-4,89887690262882E-5;
-0,000165864346791087;
-0,000257629354127604;
-0,000277696845159481;
-0,000230375105776463;
-0,000165202344350873;
-0,000133633168649519;
-0,000144416810530185;
-0,000155355439994904;
-0,000109079120207357;
1,61670659530267E-5;
0,000182666128014269;
0,000316698755034909;
0,000361306029511269;
0,000316472988131844;
0,000235081412905018;
0,000178792003877962;
0,000170078454269162;
0,000178886292022961;
0,000153359092136901;
6,7889640929329E-5;
-5,18710512725766E-5;
-0,000147607661637713;
-0,000174590580359906;
-0,000136747766176044;
-8,12790400432302E-5;
-5,7410263137554E-5;
-7,38827764333553E-5;
-9,09989726455344E-5;
-5,44647183723107E-5;
5,64985978576714E-5;
0,000206525886543512;
0,000326254369690469;
0,000362138118391939;
0,000314320023153817;
0,000232698652105401;
0,000175222530039101;
0,000162693047760236;
0,000166369572551044;
0,000137164573485715;
5,10607434217378E-5;
0,00926605660628688;
0,0224670087275762;
0,0161802741914089;
0,00927292021057527;
0,0120589505196997;
0,00693623517418577;
0,00552753377115406;
0,00445722085493237;
0,000746863038036014;
0,00104030720957587;
-0,00104417742442796;
-0,00173528333906334;
-0,00251794044157651;
-0,00430959079071169;
-0,00471931720365739;
-0,00574096858864158;
-0,00583726945626416;
-0,00607467487742104;
-0,00691312540902579;
-0,00792120028212531;
-0,00946063613997702;
-0,0104439939939193;
-0,0107470447854195;
-0,0103058223216144;
-0,00935678445887659;
-0,0085581754527107;
-0,00797244120784628;
-0,0076147681366904;
-0,00717446035229062;
-0,00644961201464174;
-0,00557670517428839;
-0,00475577443105845;
-0,0042183297691291;
-0,00389557944958715;
-0,0035365413617876;
-0,00294564313952002;
-0,00215475306819945;
-0,00149347034402036;
-0,00130540667739224;
-0,00168347999151102;
-0,00234620704299646;
-0,00278939260686023;
-0,00263317381614661;
-0,00185279849847335;
-0,000773446856583024;
0,00019007384886592;
0,000826265072751249;
0,00122612472472809;
0,00164517129584954;
0,00224752399582957;
0,00296323202021672;
0,0035645875955135;
0,00388216980991773;
0,00396687755537512;
0,00404659985919589;
0,00431461189852735;
0,00473018576915086;
0,00501190573708248;
0,00484704103231568;
0,00415583244934942;
0,00319794537515787;
0,002425323353937;
0,00218614387034916;
0,00250226824821436;
0,00308408584487038;
0,00356164517788202;
0,003745939306264;
0,00372218137762394;
0,00372072887043831;
0,00389070784154957;
0,00417066694830822;
0,0043571824410786;
0,00429990578264605;
0,00404523345177456;
0,00379845367546615;
0,00373350684985919;
0,00381470275147825;
0,00379124231786189;
0,00338416860448577;
0,00252288893403648;
0,00143973078893383;
0,000538297677422962;
0,000129202465500774;
0,000231648737200385;
0,000587227972725898;
0,000866182100848999;
0,000900233678028898;
0,000765347008496544;
0,000666416888453692;
0,000735713726170659;
0,000917960738736001;
0,00103165547124464;
0,000942616648197335;
0,000691565340622241;
0,000460319067234604;
0,000402772729443298;
0,000486777285148901;
0,000489481097823473;
0,000163202988009047;
-0,000555063442471496;
-0,0107936231072112;
-0,0248254632156964;
-0,0188605793531273;
-0,011753588563505;
-0,0140922890879601;
-0,00861313691192033;
-0,00709652922484614;
-0,00606316679317264;
-0,00230345291787734;
-0,0023256589463519;
0,000169492559066233;
0,00118524363673229;
0,00203774001988501;
0,0036799741560736;
0,00392719852504195;
0,00496216534227263;
0,00523803971665097;
0,00559791669138707;
0,0062378920525217;
0,00664862696263819;
0,00739476024758681;
0,00775312193171731;
0,00787893378176408;
0,00771846285092518;
0,00726531134332143;
0,00687821224658823;
0,00648085113286272;
0,00618094503245133;
0,00587257050673968;
0,00547323984530846;
0,00504546930075852;
0,00458882099224741;
0,00418476137061414;
0,00379553182026359;
0,00335240442749877;
0,00282723231743613;
0,00224441738066377;
0,00173751276497132;
0,0014181002395278;
0,00131035664708099;
0,00131076224950284;
0,00123469881122569;
0,000947235600555083;
0,000432262026487774;
-0,000198091025345429;
-0,000791112752905756;
-0,0012559020839649;
-0,00160125345694243;
-0,0019026385748189;
-0,00221969581023288;
-0,00254796759578854;
-0,00283613409196324;
-0,003046706252669;
-0,00320354499195752;
-0,00337472001455693;
-0,00360627392631533;
-0,00386289345923453;
-0,00403333763037416;
-0,00400676864203071;
-0,0037633631971396;
-0,00340815892705657;
-0,00311545201100056;
-0,00302083167962334;
-0,00313889465418276;
-0,003364985489691;
-0,00355609691640524;
-0,00362684742820216;
-0,00359007000137217;
-0,00351937654758106;
-0,00347343653933783;
-0,00344827376878109;
-0,00339417630299896;
-0,00327570833694317;
-0,0031160247701059;
-0,00298175406884445;
-0,00291870997124968;
-0,00289490038517246;
-0,00280567102080969;
-0,00254590809514093;
-0,00209682264860885;
-0,00155799428778593;
-0,00109460354230218;
-0,000834934053423902;
-0,000792293817282152;
-0,000867152864027801;
-0,000924110540106149;
-0,000882933871916351;
-0,000756602375393892;
-0,000615161332447007;
-0,000513594274645999;
-0,000446677920430415;
-0,000365539230858892;
-0,000235124860408722;
-7,65511120673334E-5;
4,71871484831914E-5;
9,23608416002388E-5;
8,88011368577688E-5;
0,000135336464567142;
0,000331693718324293;
0,000696528974389706;
0,00113712673501503;
0,00149909403836397;
0,00166285281667432;
0,00161696355268641;
0,00145580959558871;
0,00130696086567524;
0,00124562093776585;
0,00125926490683572;
0,00128215244573664;
0,00126344053849431;
0,0012095116767825;
0,00116797160733962;
0,0011731406279035;
0,00120595328145928;
0,00120736116526107;
0,00113595442458634;
0,00101922525272957;
0,000949562480748702;
0,00102057567854856;
0,00125034423269961;
0,00155300722521137;
0,00178516574053897;
0,00183595448339956;
0,00169533209474417;
0,00145165992044232;
0,00122374688587584;
0,00108112751274377;
0,00101145427638816;
0,000953142362734612;
0,000859138475457979;
0,000736283312524724;
0,00063001028002038;
0,000573105681207114;
0,000548071032463281;
0,000499587575561711;
0,000388356853034502;
0,000239090260242628;
0,000137033626140152;
0,000168917386397216;
0,000351682414650782;
0,000606059147620474;
0,000799540167319703;
0,000829775520682043;
0,000687667423671993;
0,000454902299980745;
0,000240900914741999;
0,000109129898567899;
4,72680839317252E-5;
-2,18771223380851E-6;
-8,27124163319591E-5;
-0,000187439490598545;
-0,000273651446347019;
-0,000310541809889526;
-0,00031424904759254;
-0,000336360148366719;
-0,000414013993670254;
-0,000525344053748685;
-0,000592456736821815;
-0,000535753772305456;
-0,000339593712170177;
-7,66704799623349E-5;
0,000131462716668599;
0,000190993564220939;
9,36870074049007E-5;
-8,55817537621649E-5;
-0,000246856967334455;
-0,000332676022104629;
-0,000355153542167616;
-0,000367528508696054;
-0,000409627133812336;
-0,00047462601241079;
-0,000522652872941816;
-0,000524946907572902;
-0,000496208910201559;
-0,000484084261642228;
-0,000523290291513255;
-0,000594575029362766;
-0,000627234188488945;
-0,000548690184700668;
-0,000344508280605756;
-8,07174667204662E-5;
0,000132164142124487;
0,000208932973008787;
0,000142300785621346;
4,67710245977985E-7;
-0,000125864160867578;
-0,000184969959151288;
-0,000188496095658845;
-0,000185223944393846;
-0,000211234008397491;
-0,000259723639390402;
-0,000293664862515324;
-0,000286311308258801;
-0,000250835811666999;
-0,000230787499382302;
-0,000258251599402379;
-0,000316343557455988;
-0,000341301275086625;
-0,000267375742948953;
-8,12553332754839E-5;
0,000157655197652852;
0,000349755271707402;
0,000418353205602403;
0,00035712613228789;
0,000227764943788261;
0,000111977659439717;
5,60002704957148E-5;
4,8804888904614E-5;
4,60991708868004E-5;
1,55058570553839E-5;
-3,62469392900429E-5;
-7,50095933686644E-5;
-7,60735901326838E-5;
-5,11111032491516E-5;
-3,95869759042067E-5;
-7,08993378408677E-5;
-0,000130374075632265;
-0,000160969161430265;
-0,000103590504793333;
5,39506193475031E-5;
0,000258658648466697;
0,000421510691937463;
0,000474041118160277;
0,000410813996278037;
0,000287165176159153;
0,00017607834667496;
0,000118512152100386;
0,000104100020891013;
9,29286036507542E-5;
5,61662429475356E-5;
3,56841951865941E-7;
-4,3278257096708E-5;
-5,21188448918349E-5;
-3,64382403421733E-5;
-3,17399428069998E-5;
-6,47782262942335E-5;
-0,000122973252405739;
-0,000155764290174078;
-0,000110512163396396;
2,38268346131893E-5;
0,000200358708002012;
0,000340169866036802;
0,000382635533462736;
0,000323104740989686;
0,000210758629882315;
0,000110190311579298;
5,73187200439996E-5;
4,24519039867548E-5;
2,98901587302334E-5;
-5,84271501627462E-6;
-5,84803715032101E-5;
-9,9731056807069E-5;
-0,000109074528711787;
-9,54880304909719E-5;
-9,06688480533443E-5;
-0,000118794453263225;
-0,000169242477055985;
-0,000197629160894941;
-0,000157497529898373;
-3,89375767924937E-5;
0,000116927494357387;
0,000240772059066418;
0,000279395143566602;
0,000228854108181193;
0,000132452826034691;
4,68155538462441E-5;
3,11454872652445E-6;
-7,64446480129092E-6;
-1,71245549278447E-5;
-4,7631210763683E-5;
-9,32265168807261E-5;
-0,000128483786737876;
-0,000134939021790536;
-0,000120355091242863;
-0,000112784814514435;
-0,000133899096831538;
-0,000174867360320175;
-0,000197116568064043;
-0,000160032934360407;
-5,47936492894912E-5;
8,29088541770537E-5;
0,00019278215650102;
0,000228612823760724;
0,000187111891395889;
0,000106041976843729;
3,45442341003765E-5;
-6,25538835766359E-7;
-7,73937271429556E-6;
-1,4615576120801E-5;
-4,05754135504784E-5;
-8,00340539439569E-5;
-0,000110322282628648;
-0,000114954917562123;
-0,000100556221128153;
-9,17131791304381E-5;
-0,000107676406920767;
-0,00014123463773156;
-0,000159228205004702;
-0,000126512718034824;
-3,52934135796658E-5;
8,38087693941954E-5;
0,000178943191794142;
0,000210421050997304;
0,000175554637321289;
0,000106928570838825;
4,67164766365371E-5;
1,7597706962498E-5;
1,20316004891396E-5;
5,8269513729903E-6;
-1,75543514602359E-5;
-5,28983853757048E-5;
-8,01663856363984E-5;
-8,47620944913737E-5;
-7,22550282676742E-5;
-6,3970197548318E-5;
-7,68495399904342E-5;
-0,000105138017618832;
-0,000120683667320419;
-9,34253166967061E-5;
-1,6538058125778E-5;
8,40483729668109E-5;
0,000164302030195613;
0,000190571271480174;
0,000160711517742157;
0,000102502559438427;
5,16766336772399E-5;
2,71736918545799E-5;
2,21749087608368E-5;
1,58751110387894E-5;
-5,69541309686521E-6;
-3,7709301529486E-5;
-6,26199776029991E-5;
-6,76236587524507E-5;
-5,73265719858523E-5;
-5,00152894322678E-5;
-6,04552790260588E-5;
-8,41953741231732E-5;
-9,76845397382158E-5;
-7,5553335568429E-5;
-1,18891865853256E-5;
7,16783513193468E-5;
0,000138297126932769;
0,000159853650808315;
0,000134686712442826;
8,61499724604857E-5;
4,40646209530639E-5;
2,39641679548158E-5;
1,97301519433028E-5;
1,36899722799999E-5;
-5,77691732814736E-6;
-3,423926109551E-5;
-5,64927982205024E-5;
-6,14213630755803E-5;
-5,27599451950938E-5;
-4,59889715731379E-5;
-5,38404744239766E-5;
-7,30214213025431E-5;
-8,4175276668912E-5;
-6,62294259109246E-5;
-1,41228547730942E-5;
5,44252742361075E-5;
0,000109104176813868;
0,000126841406198538;
0,000106403072388151;
6,70987146583459E-5;
3,33687671158667E-5;
1,76690654316126E-5;
1,45542497518954E-5;
9,22787519477949E-6;
-7,79763641650032E-6;
-3,24880167072412E-5;
-5,18206063940331E-5;
-5,62533219643815E-5;
-4,87381848485655E-5;
-4,21829584875964E-5;
-4,74336626762533E-5;
-6,22148983924037E-5;
-7,09621022222051E-5;
-5,65052895620778E-5;
-1,45704210941739E-5;
4,06524000529949E-5;
8,47664929520513E-5;
9,9253440420293E-5;
8,32556802369016E-5;
5,24188697709501E-5;
2,63261420535109E-5;
1,46768885214705E-5;
1,26677552577316E-5;
8,12372679913784E-6;
-6,52008124803875E-6;
-2,76198490300941E-5;
-4,4167040777032E-5;
-4,8074606500125E-5;
-4,15956237222846E-5;
-3,52966439545011E-5;
-3,82871134607135E-5;
-4,9175743645432E-5;
-5,57971281520467E-5;
-4,449669297113E-5;
-1,1721279625873E-5;
3,14984898051897E-5;
6,60702442469176E-5;
7,75570143422006E-5;
6,54304109270785E-5;
4,20443141718085E-5;
2,26335565804863E-5;
1,44502275769152E-5;
1,32979521232126E-5;
9,37229356629857E-6;
-3,17243264886776E-6;
-2,10714618393994E-5;
-3,51609159992837E-5;
-3,86880597764849E-5;
-3,32875204803499E-5;
-2,74122700844107E-5;
-2,85853867588469E-5;
-3,61751589010119E-5;
-4,10374959058144E-5;
-3,26585723357835E-5;
-8,14077333783047E-6;
2,42893114637315E-5;
5,02561978358293E-5;
5,89496258880742E-5;
5,01260690938262E-5;
3,32065499485036E-5;
1,95662337492178E-5;
1,43036139964169E-5;
1,3790695259183E-5;
1,03489064986698E-5;
-3,43845669971733E-7;
-1,53872346389525E-5;
-2,72939659106031E-5;
-3,05258162791367E-5;
-2,61758482855743E-5;
-2,08050761294345E-5;
-2,04993215257571E-5;
-2,52716325299477E-5;
-2,8639731545528E-5;
-2,28720556406241E-5;
-5,662966166857E-6;
1,72263178316528E-5;
3,55768350222599E-5;
4,17716494798742E-5;
3,58106598377579E-5;
2,45246363825935E-5;
1,58935758511144E-5;
1,31389582512123E-5;
1,31602200686835E-5;
1,01687136581718E-5;
1,17988095084011E-6;
-1,12531472815541E-5;
-2,11550162696516E-5;
-2,40844957662685E-5;
-2,06656009815289E-5;
-1,57805420655758E-5;
-1,4223687108448E-5;
-1,65475576734295E-5;
-1,85924355166358E-5;
-1,50689335839184E-5;
-4,20187522566201E-6;
1,03935413605602E-5;
2,21255840068479E-5;
2,61616784585121E-5;
2,2707009518551E-5;
1,63263843738363E-5;
1,20425362752622E-5;
1,14585380531469E-5;
1,19592952391417E-5;
9,4212424308607E-6;
2,02231324335344E-6;
-8,01204001175777E-6;
-1,60586837091567E-5;
-1,86591546780142E-5;
-1,6035919243062E-5;
-1,15950558292396E-5;
-8,98011937373438E-6;
-9,18705993914763E-6;
-1,00610464852669E-5;
-8,43480868241092E-6;
-3,00444114545894E-6;
4,46256190110129E-6;
1,05062879899108E-5;
1,26961073448336E-5;
1,14078048325182E-5;
9,24464238741558E-6;
8,68156506141986E-6;
9,94322067139008E-6;
1,08579405147766E-5;
8,75508544583909E-6;
2,81190951011E-6;
-5,05258628230927E-6;
-1,14141151407746E-5;
-1,36870530496941E-5;
-1,17545652070418E-5;
-7,73751778426341E-6;
-4,26289671662024E-6;
-2,68313559306876E-6;
-2,55324828820712E-6;
-2,52937998147149E-6;
-1,72247469202785E-6;
-3,28691101412562E-7;
8,63983397609731E-7;
1,47212358009821E-6;
2,01075042959976E-6;
3,40490339862892E-6;
5,96143249070502E-6;
8,74744583090373E-6;
9,99315889632772E-6;
8,28232605594327E-6;
3,64056453546385E-6;
-2,29728931540918E-6;
-7,16001672268771E-6;
-9,13019199706084E-6;
-7,80869017588325E-6;
-4,20956195395521E-6;
-7,02873256292215E-8;
2,97820234339354E-6;
3,94279168316801E-6;
2,62034519519687E-6;
-4,61695407331987E-7;
-4,18223603766989E-6;
-7,08096158690248E-6;
-7,82062636405339E-6;
-5,77522889357841E-6;
-1,43651865585724E-6;
3,68345381936159E-6;
7,69587760448851E-6;
9,1922500444557E-6;
7,82639290729857E-6;
4,33366187407971E-6;
8,74945222253081E-8;
-3,45672945804957E-6;
-5,15112561969874E-6;
-4,36614862043651E-6;
-1,1744381472885E-6;
3,45676449287465E-6;
7,68731550876383E-6;
9,33425638865094E-6;
6,9012112484311E-6;
6,03779973371921E-7;
-7,35146398812141E-6;
-1,36430733249418E-5;
-1,55114064909146E-5;
-1,22447824676885E-5;
-5,51244824650973E-6;
1,6732038903761E-6;
6,65002073040562E-6;
8,33155762383319E-6;
7,27191308773114E-6;
4,7898680894208E-6;
2,02027767474671E-6;
-3,69228348659334E-7;
-1,80807910020018E-6;
-1,48312573780328E-6;
1,32227324393683E-6;
6,30010345168431E-6;
1,14620015319304E-5;
1,36601856177322E-5;
1,03361744641022E-5;
1,43989977610119E-6;
-9,94630584039377E-6;
-1,8990898495756E-5;
-2,17821449482451E-5;
-1,75451600022404E-5;
-8,90939735231729E-6;
-9,92411197125864E-8;
5,61382466056187E-6;
7,42792098506245E-6;
6,64229834199689E-6;
5,04500140110332E-6;
3,55485832000287E-6;
2,17036210069913E-6;
9,70298351830731E-7;
9,09557107914137E-7;
3,35527039754662E-6;
8,55615408023847E-6;
1,44288326063793E-5;
1,70630456990684E-5;
1,30470854005705E-5;
2,10776483575857E-6;
-1,19850164610021E-5;
-2,32053183654689E-5;
-2,67322821666803E-5;
-2,17476011267E-5;
-1,16451920178738E-5;
-1,60253907523767E-6;
4,64566710767171E-6;
6,54666266466015E-6;
6,00424955975622E-6;
5,17341108325409E-6;
4,77897401048239E-6;
4,25926377593537E-6;
3,27999819161761E-6;
2,9007077446845E-6;
5,0134088316924E-6;
1,03296962969067E-5;
1,67170888646406E-5;
1,96832816786445E-5;
1,51506084981669E-5;
2,66167384616951E-6;
-1,34934924873425E-5;
-2,63760972533881E-5;
-3,04727434212638E-5;
-2,49389481025243E-5;
-1,37582282874929E-5;
-2,83067736658261E-6;
3,77485713534932E-6;
5,72148270006577E-6;
5,39115827870789E-6;
5,21486408023438E-6;
5,74467482763381E-6;
5,95808879485556E-6;
5,17962441206685E-6;
4,54087417737734E-6;
6,34599177732597E-6;
1,16841621719232E-5;
1,84129397382654E-5;
2,16174728548518E-5;
1,67205777362905E-5;
3,11596407122448E-6;
-1,45338409380191E-5;
-2,86260849389075E-5;
-3,3146207390909E-5;
-2,72384536757462E-5;
-1,53210973661287E-5;
-3,81346521752112E-6;
2,99431667511424E-6;
4,95032533657337E-6;
4,80198149669384E-6;
5,17616028815981E-6;
0,00933990652527424;
0,0226370272470485;
0,016379436682084;
0,0094389499505557;
0,012176768239224;
0,00703882466739931;
0,00565439403433686;
0,00460564745988592;
0,000858308850124764;
0,0010358599445251;
-0,00120561955359846;
-0,00202203804471553;
-0,00284203714716684;
-0,00458245155842497;
-0,00490373766592022;
-0,00586048903267136;
-0,00593892817163092;
-0,00617826417903379;
-0,00698934657549307;
-0,00791564370103718;
-0,0093419082425052;
-0,0102345828848911;
-0,0105106305124985;
-0,0101016594743882;
-0,00919953532254649;
-0,00841700903171461;
-0,00781016462657654;
-0,00743375647954304;
-0,00702958415298527;
-0,00641495731812258;
-0,00569094846565451;
-0,00498935607889762;
-0,00448894687951964;
-0,0041204101241241;
-0,00368092459410523;
-0,0030317495798532;
-0,00222657914861046;
-0,00156928628007599;
-0,00135739842676645;
-0,00166036785455445;
-0,0115518665534265;
-0,0252077707917969;
-0,0187707728819953;
-0,0110826767478813;
-0,0127854876834026;
-0,0066958760921251;
-0,00465059646572846;
-0,00318281413963914;
0,000943393242410626;
0,00124995461285321;
0,00404862412497602;
0,00533908752869331;
0,00643592425153649;
0,00830815835297045;
0,00879463977699115;
0,0100837358104546;
0,0105964085530958;
0,0111145298313763;
0,0117821266303186;
0,0120874059436091;
0,0126547245582352;
0,0128535768598287;
0,0129118607948608;
0,0127879693438492;
0,0124257737711728;
0,0121093976894829;
0,0117097069526207;
0,0113273637261788;
0,0108841026940871;
0,0103288436363583;
0,0190699567883724;
0,0317320470893219;
0,0248790953061418;
0,0173600297562751;
0,0194897043435908;
0,0136923565397162;
0,0115945268999473;
0,00985913143262478;
0,00551818924727557;
0,00521757330039908;
0,00256230597092889;
0,00129292801065;
-9,07825876250569E-5;
-0,00251158107764215;
-0,00356149401490035;
-0,0052075577145915;
-0,00589095633764227;
-0,0066656311821275;
-0,00799393488892019;
-0,00945222104150371;
-0,0207444133465822;
-0,0354200121826104;
-0,0298445153671258;
-0,0228308623129832;
-0,024976402449847;
-0,0193780479789711;
-0,0177136358531621;
-0,0165646354450762;
-0,0125766197437148;
-0,012174216377857;
-0,00916623565744036;
-0,00761922021402683;
-0,00635378138991913;
-0,00438912912600488;
-0,00380448316856905;
-0,00233253608991739;
-0,00150328643431782;
-0,000599728556125672;
0,000443335121966599;
0,0010683755661372;
0,00193174760341342;
0,00249481031207675;
0,00304622945342309;
0,00353603275598669;
0,00382877518073511;
0,00412730690347361;
0,00428836013421921;
0,0044723996552404;
0,00468580527210218;
0,00490643575163964;
0,00514852188440817;
0,00529301596605209;
0,00533100279547094;
0,00523924673002967;
0,00505238068556326;
0,00484218347947978;
0,0046369097271141;
0,00446571620635148;
0,00431088265259344;
0,00415426365375378;
0,00398701433141162;
0,00379985969908522;
0,0035930763322118;
0,00335408646608599;
0,00307458792516001;
0,00276141518712325;
0,002443082641455;
0,00216586781410463;
0,0019636142085643;
0,00183688833189711;
0,00174549455545771;
0,00162814676606965;
0,00143770976863961;
0,00116558370880066;
0,000844607228295277;
0,000526201155424894;
0,000251144299869001;
3,27825574449301E-5;
-0,000140202495248075;
-0,000287294984244014;
-0,000422651234387464;
-0,000553156898006369;
-0,000685382410337662;
-0,000830322447671004;
-0,000997378986748131;
-0,00118150927111842;
-0,00135573886292149;
-0,00147981288683762;
-0,00152318472355386;
-0,00148750421847538;
-0,00141168230380595;
-0,00135343759607923;
-0,00135805483122513;
-0,00143446740297177;
-0,00155372185356484;
-0,00166924310668765;
-0,00174377741711985;
-0,00176532084515727;
-0,00174452207515302;
-0,00170025773263328;
-0,00164702994228753;
-0,00159290695428955;
-0,00154541078096539;
-0,00151532040096248;
-0,00151124549824164;
-0,00152811349741046;
-0,00154084817695986;
-0,00151263934019554;
-0,00141597605055314;
-0,00125303892713056;
-0,00106004364663195;
-0,000890257043542626;
-0,000785451312858168;
-0,000754071627577698;
-0,000769787085574734;
-0,000789868388292601;
-0,000779757922644107;
-0,000727784050187618;
-0,000643144431148293;
-0,000543071910023646;
-0,000441382192019722;
-0,000346282836715219;
-0,000265229436158553;
-0,000208002217836971;
-0,000181739243615702;
-0,000180790199201597;
-0,000181428583089775;
-0,000149675806412381;
-6,04237373206748E-5;
8,42557750141798E-5;
0,000251404569439141;
0,000392699362310495;
0,000470326999129568;
0,000476749968976161;
0,000436074582685217;
0,00038751173307846;
0,000363154738341085;
0,00037449261367004;
0,000413909599357789;
0,000466004835992616;
0,000517913577048847;
0,000561579411361235;
0,000589831963406587;
0,000593964047076029;
0,000568244328422376;
0,000518773540578861;
0,000467833126049012;
0,000446548335377497;
0,00047764231166802;
0,000559134962585604;
0,000661223021588328;
0,000740352756869952;
0,000762486604440379;
0,000720854903379285;
0,000637239240254036;
0,000547213537651105;
0,000480210183144028;
0,000447256443774108;
0,000442019559749728;
0,000450695167353364;
0,00046123292128883;
0,000465644751601998;
0,000456922127597708;
0,000427196805542453;
0,000371809504136852;
0,000296959761273819;
0,000223206999106324;
0,000178648609833812;
0,000183494780587667;
0,00023568406932511;
0,000308298989873234;
0,000362222611849551;
0,000366885722936838;
0,000316077570002022;
0,000229141378290366;
0,000137920605383875;
6,90296030796972E-5;
3,27912815317844E-5;
2,38862564287834E-5;
2,98997667593473E-5;
3,94965823793623E-5;
4,47261354024824E-5;
3,86875085885109E-5;
1,42057832293694E-5;
-3,25291626409989E-5;
-9,54325762118712E-5;
-0,000155783336326248;
-0,000188515890261918;
-0,000175898575712612;
-0,000120106377862551;
-4,53206409756237E-5;
1,35583946903407E-5;
2,92496573698378E-5;
-3,95090829589742E-6;
-6,90648231764483E-5;
-0,000137868021838789;
-0,000186518337550796;
-0,000205452784433094;
-0,000199080052996967;
-0,000178481046242981;
0,00917920163739155;
0,0224955920815916;
0,0162478341631237;
0,00930008628060499;
0,0120079034915757;
0,00682174849371285;
0,00538995087593868;
0,00432207308258216;
0,000604202158025258;
0,000858340459288798;
-0,00128584162582853;
-0,0020231274777698;
-0,0028126001960793;
-0,00457710390424042;
-0,00495758010157523;
-0,00597702882568827;
-0,00609603323084344;
-0,00634496764252135;
-0,007141225590448;
-0,00804078013678069;
-0,0094383869827098;
-0,0103063211662074;
-0,0105667716988643;
-0,0101582987836664;
-0,0092778910911315;
-0,00853417659613136;
-0,0079659252085641;
-0,00760301408253566;
-0,0071687535217281;
-0,00648178803730476;
-0,0056671334422668;
-0,00489182111245881;
-0,00436219017413031;
-0,00401435447450362;
-0,00362779950772349;
-0,00303516551625537;
-0,00226692980496766;
-0,00161896113770054;
-0,00139469183036352;
-0,00167486123622726;
-0,00220872377940072;
-0,00254796772679119;
-0,0023561213833615;
-0,00161059015452678;
-0,000599387475690715;
0,000309098504557747;
0,000925128963012398;
0,00132533423142018;
0,00173295686600775;
0,0022929477515347;
0,00294671070219467;
0,00349830543665478;
0,0038025522425786;
0,00390593000854413;
0,00400746127976015;
0,00427339470058392;
0,00466373521542871;
0,00492833221254671;
0,0047920622388331;
0,00418680175114605;
0,00334382195795331;
0,00266318307006038;
0,00245281444415442;
0,00273273973345927;
0,00324803092311699;
0,00367179069676825;
0,00383483699868257;
0,00380847704223171;
0,00379268895743154;
0,00391884443087706;
0,00413656909384715;
0,0042726946155321;
0,00419996860482085;
0,00396082230325851;
0,00373341853131026;
0,00366603658084374;
0,00372313873741232;
0,00368265766757398;
0,0033005315676623;
0,00251716708963777;
0,00153885603003586;
0,000721401645100629;
0,000338364073691854;
0,000407385618921265;
0,000702143177844763;
0,000932480062471447;
0,000948026113165696;
0,000811416425489333;
0,000699181836977812;
0,000727266702219373;
0,000851067507577702;
0,00091762514017072;
0,000814555595316108;
0,000579047595698429;
0,000367637503482302;
0,000310066821871083;
0,000373844547130416;
0,000362309542331673;
5,98980463808767E-5;
-0,000586089782486534;
-0,0107276447437783;
-0,024681447518688;
-0,0186913396501745;
-0,0116132496204684;
-0,014005530919429;
-0,00856850134189705;
-0,00706651344751896;
-0,00603291990670695;
-0,0022843897566902;
-0,00234408829454805;
9,74438919241793E-5;
0,00107014900955114;
0,00191057219602432;
0,00356859241415735;
0,00383609521650526;
0,00487329446914678;
0,00513260752911175;
0,0054808179195457;
0,00614335469325699;
0,00662046319624807;
0,00745541215943561;
0,00788541245113252;
0,00803501671876867;
0,00784941112310839;
0,00734900963050425;
0,00692526664454459;
0,00651612696645166;
0,00621741125103845;
0,00589907104761883;
0,00546514244148846;
0,00498776884593597;
0,00449128834938555;
0,00407610771556924;
0,00370175686237945;
0,00327808675080842;
0,00275609417579716;
0,00215910774226347;
0,00164193571296004;
0,00134274291702154;
0,00129455227865418;
0,00137472620438008;
0,0013630139585469;
0,0010969200190597;
0,000559462317203221;
-0,000113007006440375;
-0,000738386749342892;
-0,00121321441658174;
-0,0015573738002775;
-0,00186831932232821;
-0,00221778337394941;
-0,00259228435489479;
-0,00291769408232983;
-0,00313907612623954;
-0,00328262455056847;
-0,00343588979375516;
-0,0036640605884496;
-0,00393315409894027;
-0,00411301855682998;
-0,00406891895010868;
-0,00377293041338329;
-0,00334704574592619;
-0,00299734145140904;
-0,00288397590109995;
-0,00302223151068344;
-0,00328575202731901;
-0,00350535395829285;
-0,003584697510586;
-0,00354686964279427;
-0,00348535518326139;
-0,00346958777331736;
-0,00348720448975342;
-0,00346766307275394;
-0,00335958252634779;
-0,00318810033436004;
-0,00303742007949235;
-0,00297079444143086;
-0,00295775962435126;
-0,00287698809243091;
-0,00260206368454545;
-0,00210683667458779;
-0,00150578683786947;
-0,000992192197747152;
-0,000716044862896852;
-0,000691175662545964;
-0,000798779613743025;
-0,000880350273218986;
-0,00084619765878022;
-0,000718708700859068;
-0,000585749718522217;
-0,000511801580313343;
-0,000483910897041247;
-0,000434332353055754;
-0,000313555633047087;
-0,000144357297622523;
-5,45813708702491E-6;
4,36542697235356E-5;
3,11380289972112E-5;
7,03795951338652E-5;
0,000279927584937812;
0,000685072288055462;
0,00118013370824835;
0,00158611002822213;
0,00176442211376543;
0,00170325014091978;
0,00151394212788822;
0,0013442690301399;
0,00127749796981317;
0,00129254119018362;
0,00130781205111802;
0,00126416707733611;
0,00117505670073868;
0,00110504690181937;
0,00110146077449256;
0,00114386740397014;
0,00115926854651873;
0,0010921305884828;
0,000968175453742233;
0,000892368688107393;
0,00097479312428859;
0,0012394588744513;
0,00158934898173644;
0,00185973212566619;
0,00192328290388011;
0,00176970413363709;
0,00150214244746783;
0,00125688446739624;
0,00111024574461396;
0,00104214709993416;
0,000977039585039014;
0,000860691094815209;
0,000706353633157006;
0,000574575396212677;
0,00050974110693849;
0,000493254528178911;
0,000457536504548249;
0,000350737997966531;
0,000195744491507749;
8,85382116406972E-5;
0,000130119099964702;
0,000342684694621263;
0,000637485196917162;
0,0008637323567416;
0,000904981245578039;
0,000751986135490036;
0,000499180683817614;
0,000270931251415943;
0,000136314281670905;
7,60847971481783E-5;
2,05529017129379E-5;
-7,98926757830866E-5;
-0,000212616647495392;
-0,000321549906789776;
-0,000365630235227488;
-0,000361853048257664;
-0,000372473533232053;
-0,000445682457615041;
-0,000561459395755241;
-0,00063287025993384;
-0,000568098386360383;
-0,000346885751725459;
-4,98663875812041E-5;
0,000185944608455042;
0,000254823607957861;
0,000148479974293913;
-4,7354249142321E-5;
-0,00022011335266881;
-0,000307786380392637;
-0,000328635468840854;
-0,000346422509144786;
-0,000406149131869872;
-0,000495844828461989;
-0,000563954764862249;
-0,000572734354904222;
-0,000537526922334217;
-0,000515158586111622;
-0,000549984087049355;
-0,000624587942198422;
-0,000660776046244093;
-0,000575646361506202;
-0,000350750316727083;
-5,86530140922692E-5;
0,000177248840145452;
0,000261840500345733;
0,000187856234757465;
3,26135597816015E-5;
-0,000102713006920426;
-0,000162804643282796;
-0,000164716764269201;
-0,000166209115617329;
-0,000207658817304745;
-0,000277711260870991;
-0,000329222129988429;
-0,000327655811860004;
-0,000286638605586548;
-0,000257522214365533;
-0,000280705780323393;
-0,000341106763823672;
-0,000368879923637994;
-0,000289686861723772;
-8,67649926575175E-5;
0,000175214475342063;
0,000386121080851723;
0,0004611697119989;
0,000394125198892159;
0,000254208004076715;
0,000131657856079391;
7,54537158650648E-5;
6,98548931672738E-5;
6,30131500559783E-5;
1,90520835394856E-5;
-5,13124705949506E-5;
-0,000105271961876033;
-0,000111441097925094;
-8,1780458936935E-5;
-6,22907142628295E-5;
-8,94556309986462E-5;
-0,00015034821445075;
-0,000183108995882171;
-0,000121631454058696;
4,92027098869863E-5;
0,000272270317311987;
0,000450137036303505;
0,000507882747173704;
0,00044021286081589;
0,000308555040902954;
0,000192676856981272;
0,000135527833337031;
0,000122679365469678;
0,000107962014638569;
5,97629691170284E-5;
-1,19162174871274E-5;
-6,85405026252735E-5;
-8,18405951190676E-5;
-6,22356840189156E-5;
-5,06099521939427E-5;
-7,96724437894922E-5;
-0,000138519164389929;
-0,000172901282752168;
-0,000124588982702074;
1,99118503509257E-5;
0,000210592427367339;
0,000362022807750776;
0,000408589388846785;
0,000345825878799457;
0,000227713959363524;
0,000124069556317973;
7,21440497185877E-5;
5,87867598056149E-5;
4,32202506855173E-5;
-2,17168262569877E-6;
-6,81588105285083E-5;
-0,000120367523416536;
-0,000133570432272436;
-0,000116769124914192;
-0,000105996600875045;
-0,000130352142938951;
-0,000180805248260564;
-0,000210282899597983;
-0,000168008870242562;
-4,20597123241546E-5;
0,0001242192099257;
0,000256666629410422;
0,00029839219970692;
0,00024567209429729;
0,000145460792983103;
5,82231983976521E-5;
1,58934466916486E-5;
6,57335569250088E-6;
-5,41821682249465E-6;
-4,39591767746677E-5;
-0,000100603927961434;
-0,000144963080606624;
-0,000154722089269234;
-0,000137566067662227;
-0,00012494598752441;
-0,000142518531980725;
-0,000182951575739389;
-0,000205857985447679;
-0,000167431868348851;
-5,72323534844829E-5;
8,76050234874702E-5;
0,00020342911586751;
0,000241478681588511;
0,000198709557814531;
0,000115519989739343;
4,3679341481866E-5;
1,02164942075516E-5;
4,4616974442502E-6;
-4,47644653945028E-6;
-3,69937905082922E-5;
-8,54159586752075E-5;
-0,000123119671998334;
-0,000130542034039642;
-0,000114145265094687;
-0,000101080465226135;
-0,000113742665418779;
-0,000146319085321868;
-0,000164594933893543;
-0,00013122381375467;
-3,71477927496066E-5;
8,62417687916691E-5;
0,000185020473744151;
0,000217944619599453;
0,000182590123312136;
0,000113289933943694;
5,37930617357288E-5;
2,66386469772085E-5;
2,23464636553727E-5;
1,44875616108687E-5;
-1,41184773858187E-5;
-5,65483760496756E-5;
-8,97108546410001E-5;
-9,66235071880568E-5;
-8,26256950685065E-5;
-7,0871254345706E-5;
-8,06966019052009E-5;
-0,000107641159717322;
-0,000123148550886844;
-9,58166627108259E-5;
-1,78732983164364E-5;
8,45552811819241E-5;
0,000166469083898133;
0,000193515696636249;
0,00016382675402981;
0,000106162807572388;
5,6927493755616E-5;
3,45764330112483E-5;
3,07625586645796E-5;
2,3174471845332E-5;
-2,42865611325421E-6;
-3,98530099205777E-5;
-6,92983498999367E-5;
-7,61883121884573E-5;
-6,48454144968097E-5;
-5,47430833646506E-5;
-6,23787129772958E-5;
-8,44896595365211E-5;
-9,76711274740188E-5;
-7,59533304043348E-5;
-1,27550609920282E-5;
7,05804957351182E-5;
0,000137172802944652;
0,000158933225987043;
0,000134483967890421;
8,75032084633482E-5;
4,77172166298272E-5;
2,98939390998294E-5;
2,67528512735351E-5;
1,97491656971072E-5;
-2,69405545593228E-6;
-3,50858115423151E-5;
-6,06695192262811E-5;
-6,70958398280934E-5;
-5,77754959360124E-5;
-4,88212280218174E-5;
-5,41171706300062E-5;
-7,14528039013753E-5;
-8,20767546084621E-5;
-6,49450832186859E-5;
-1,45716129520017E-5;
5,20105959690333E-5;
0,000105249445986048;
0,000122704901380505;
0,000103429068154981;
6,65024508302343E-5;
3,56305581573939E-5;
2,22791222849155E-5;
2,01638275869917E-5;
1,41593347028047E-5;
-4,91541673833469E-6;
-3,22383617870561E-5;
-5,38440870784789E-5;
-5,94268954183258E-5;
-5,15854657296868E-5;
-4,33865626433977E-5;
-4,63261375170934E-5;
-5,91067605404967E-5;
-6,71445164102256E-5;
-5,38246148316122E-5;
-1,46583411498708E-5;
3,71746414324007E-5;
7,86842926603268E-5;
9,24845283229064E-5;
7,8002452569941E-5;
5,01950863722344E-5;
2,73856168103101E-5;
1,8109509857994E-5;
1,70068342516615E-5;
1,20331600727905E-5;
-3,85411482743103E-6;
-2,6462298077865E-5;
-4,43640281100938E-5;
-4,91129437163419E-5;
-4,25897646364419E-5;
-3,51215829043579E-5;
-3,60378869600662E-5;
-4,48235527386413E-5;
-5,05940193780894E-5;
-4,06829983275121E-5;
-1,15024667285976E-5;
2,71839333459109E-5;
5,82125847777144E-5;
6,8681435849837E-5;
5,83421628279643E-5;
3,84856808661397E-5;
2,26657009837977E-5;
1,68415321049716E-5;
1,65044321328774E-5;
1,23632467673012E-5;
-7,32243748591426E-7;
-1,91762119660519E-5;
-3,38306172816137E-5;
-3,79272525730849E-5;
-3,27180715955614E-5;
-2,60865684835761E-5;
-2,54127017668674E-5;
-3,08428844351222E-5;
-3,47467016635814E-5;
-2,79472037431941E-5;
-7,66342817900452E-6;
1,93410956980673E-5;
4,10288656577444E-5;
4,84398020224022E-5;
4,16031413037275E-5;
2,85793964131924E-5;
1,87344445331475E-5;
1,57846535573739E-5;
1,599840792431E-5;
1,25233131677378E-5;
1,86778627434706E-6;
-1,290553783066E-5;
-2,47070843363008E-5;
-2,82714069844518E-5;
-2,43060202898431E-5;
-1,85345182692354E-5;
-1,65975594406966E-5;
-1,91928513492911E-5;
-2,15248460428061E-5;
-1,74716528775847E-5;
-4,96990718935237E-6;
1,18248931642507E-5;
2,5340573699923E-5;
3,00479550762805E-5;
2,62102224314097E-5;
1,90686437541109E-5;
1,43483573341995E-5;
1,38337516157366E-5;
1,44966940647142E-5;
1,16246634447185E-5;
3,16478373346295E-6;
-8,3193507117836E-6;
-1,75556767019025E-5;
-2,06132905317419E-5;
-1,77340609345486E-5;
-1,27506714591073E-5;
-9,76582441743972E-6;
-9,92842928708889E-6;
-1,08859995366986E-5;
-9,16419670892481E-6;
-3,33221784181336E-6;
4,69634391359988E-6;
1,11968176058966E-5;
1,35934796176987E-5;
1,23435988906228E-5;
1,02541684183494E-5;
9,92017988595424E-6;
1,148222021088E-5;
1,25437774442506E-5;
1,02510708662294E-5;
3,78507627801295E-6;
-4,74541949606984E-6;
-1,16662217266436E-5;
-1,42208570801922E-5;
-1,2258247857483E-5;
-7,9726611455665E-6;
-4,11955121733647E-6;
-2,20860299137744E-6;
-1,96698118252331E-6;
-2,18842004379913E-6;
-1,9942909485438E-6;
-1,39511231848823E-6;
-8,40764128092749E-7;
-3,95740267017578E-7;
5,55318343143605E-7;
2,74274608958163E-6;
6,10419737116096E-6;
9,40158386959644E-6;
1,08008449021661E-5;
9,04486007968419E-6;
4,35929169659575E-6;
-1,55811708284445E-6;
-6,42394570804841E-6;
-8,50504361812907E-6;
-7,32385404027834E-6;
-3,67120023716012E-6;
8,65700112536822E-7;
4,49742742581815E-6;
5,7515823973343E-6;
3,91693551701477E-6;
-6,04686448408027E-7;
-6,23180273543589E-6;
-1,06661844002353E-5;
-1,18674911212846E-5;
-9,09459712851701E-6;
-3,36433830256809E-6;
3,03790543623826E-6;
7,73730315805898E-6;
9,39628361372536E-6;
8,11200323647543E-6;
4,98143822162724E-6;
1,33394470613439E-6;
-1,74431035057853E-6;
-3,40219580198539E-6;
-2,89603122171028E-6;
1,69817690623712E-7;
5,20963981059163E-6;
1,02261959603817E-5;
1,2307075563239E-5;
9,14479501206945E-6;
7,34392335961669E-7;
-1,00340581331324E-5;
-1,85948483171078E-5;
-2,11734563971978E-5;
-1,69318840655731E-5;
-8,33308505748478E-6;
5,10209041654953E-7;
6,30538669039876E-6;
8,14897270899419E-6;
7,26991943226263E-6;
5,47879258271871E-6;
3,77758974837079E-6;
2,23450827335546E-6;
9,49661448680994E-7;
8,78429232644993E-7;
3,40404360230174E-6;
8,7881939327721E-6;
1,48890027213474E-5;
1,76303618102549E-5;
1,34005347573104E-5;
1,85227418040251E-6;
-1,3071934276444E-5;
-2,49740693309438E-5;
-2,86808566349727E-5;
-2,32831021279923E-5;
-1,2417018133448E-5;
-1,66509062580377E-6;
4,95883072702768E-6;
6,9268561206424E-6;
6,3971230451739E-6;
5,7514271569067E-6;
5,70345850658691E-6;
5,46821796005235E-6;
4,5152899345077E-6;
3,96307977510872E-6;
6,00162123700947E-6;
1,15986991859992E-5;
1,85227367520159E-5;
2,17820654512103E-5;
1,67240240907127E-5;
2,71806381147613E-6;
-1,54705680764073E-5;
-3,00023523395699E-5;
-3,46063456099108E-5;
-2,83247705469436E-5;
-1,57218029342031E-5;
-3,52910576333255E-6;
3,69319578492832E-6;
5,73840761456346E-6;
5,51083280358243E-6;
5,83607099161129E-6;
7,17636736160499E-6;
8,04379160765362E-6;
7,3873681044378E-6;
6,44541724796363E-6;
8,0517350317296E-6;
1,37516715844178E-5;
2,12712314584986E-5;
2,49241686812916E-5;
1,92524465457265E-5;
3,3957642952805E-6;
-1,72619565293862E-5;
-3,37877007843546E-5;
-3,90808393469179E-5;
-3,21547297553651E-5;
-1,82828150922581E-5;
-5,06098392138177E-6;
2,55875895982984E-6;
4,6407942913194E-6;
4,67163375058046E-6;
5,80761434337014E-6;
8,29403491073608E-6;
1,00760006733573E-5;
9,6815767621768E-6;
8,43118197461071E-6;
9,65657072515079E-6;
1,5364693576511E-5;
2,32793251439881E-5;
2,72147037887661E-5;
2,11163264475641E-5;
3,9423902737342E-6;
-1,84842342248096E-5;
-3,64441681127441E-5;
-4,22434954652896E-5;
-3,48837340580688E-5;
-2,01543380257037E-5;
-6,26440015106704E-6;
1,57713906668078E-6;
3,65991183672954E-6;
3,90700943581021E-6;
5,7060944875986E-6;
9,11754383336078E-6;
1,1641518824073E-5;
1,14746076833092E-5;
9,98649376623718E-6;
1,08776244821883E-5;
1,65127732958485E-5;
2,464714129632E-5;
2,87659973811784E-5;
2,24019610707663E-5;
4,37484200929095E-6;
-1,92102763646279E-5;
-3,81161349158719E-5;
-4,42620796640731E-5;
-3,66523305471331E-5;
-2,1423206608312E-5;
-7,17802837365642E-6;
7,34037301494735E-7;
2,78630819246374E-6;
3,21027437782227E-6;
5,5383628922782E-6;
9,67550248497827E-6;
1,27854989774871E-5;
1,28131717993034E-5;
1,11492783939978E-5;
1,17494071339265E-5;
1,72440694730221E-5;
2,54475920182516E-5;
2,96638219088868E-5;
2,31722301198998E-5;
4,69243441720814E-6;
-1,95234800500312E-5;
-3,89526324432835E-5;
-4,53062313740681E-5;
-3,76034517851252E-5;
-2,21809667936601E-5;
-7,84735391335001E-6;
7,75955027327842E-9;
2,00397398043901E-6;
2,56944062719174E-6;
5,30680391343155E-6;
9,99245385322542E-6;
1,35496021367175E-5;
1,37416836027183E-5;
1,19566339829018E-5;
1,23064192643877E-5;
1,76063315978046E-5;
2,57521293602897E-5;
2,99923908157548E-5;
2,34908986131623E-5;
4,9006053524712E-6;
-1,94946575285561E-5;
-3,90849506187998E-5;
-4,55259556080048E-5;
-3,78619854030418E-5;
-2,25046204326659E-5;
-8,30656006039193E-6;
-6,13773833993414E-7;
1,3062514709022E-6;
1,98198428299872E-6;
5,02285760284267E-6;
1,01011062063999E-5;
1,3982987119534E-5;
1,43121091150414E-5;
1,2453645597847E-5;
1,25909851066011E-5;
1,76537216243673E-5;
2,56365178498588E-5;
2,98391191477075E-5;
2,34264352121155E-5;
5,01388695662095E-6;
-1,91798039417529E-5;
-3,86251374460414E-5;
-4,50509239645371E-5;
-3,75349020720667E-5;
-2,24575625373653E-5;
-8,58023492835957E-6;
-1,13540482837442E-6;
6,92838414199272E-7;
1,45120542545188E-6;
4,70273300850414E-6;
1,00373956101651E-5;
1,41367921460586E-5;
1,45779915323157E-5;
1,26870471945962E-5;
1,26466280079844E-5;
1,74399449647393E-5;
2,51737324762651E-5;
2,92872807815406E-5;
2,30444866226107E-5;
5,04828415718878E-6;
-1,86277887863307E-5;
-3,76737328465937E-5;
-4,39982239748174E-5;
-3,67190073667667E-5;
-2,20973042006618E-5;
-8,69100069534523E-6;
-1,56225195097576E-6;
1,62386145589787E-7;
9,78930497370004E-7;
4,36016711013515E-6;
9,83332382434918E-6;
1,40570818544451E-5;
1,45875617800985E-5;
1,26986015517379E-5;
1,2511749293637E-5;
1,70122281014299E-5;
2,44282284859461E-5;
2,84105712846222E-5;
2,240270945004E-5;
5,01633968796623E-6;
-1,78850443415405E-5;
-3,6324189446468E-5;
-4,24764783677573E-5;
-3,55047263844574E-5;
-2,14788875659542E-5;
-8,66255293132733E-6;
-1,90239395507703E-6;
-2,8986273753785E-7;
5,63419634053036E-7;
4,00457598494727E-6;
9,51531470923303E-6;
1,37834270288434E-5;
1,43825699785024E-5;
1,25241731531102E-5;
1,22189942518797E-5;
1,6411004086698E-5;
2,34559214942735E-5;
2,72733221267361E-5;
2,15511380404273E-5;
4,92759799870701E-6;
-1,69950373926147E-5;
-3,46622612677285E-5;
-4,05850938252012E-5;
-3,39751315856949E-5;
-2,06536533612632E-5;
-8,51818534326208E-6;
-2,16519783073657E-6;
-6,70275182409685E-7;
2,01234282476237E-7;
3,64296473029666E-6;
9,1061733564274E-6;
1,33508840946402E-5;
1,40002867919655E-5;
1,21957952989621E-5;
1,17973796011052E-5;
1,567212274101E-5;
2,23064852541585E-5;
2,59328323188047E-5;
2,05344660564259E-5;
4,79072554853716E-6;
-1,59963613198955E-5;
-3,2764270359316E-5;
-3,84126017082532E-5;
-3,22042504921566E-5;
-1,96674483564225E-5;
-8,2788954581441E-6;
-2,35938772778729E-6;
-9,84929666948297E-7;
-1,10928594181335E-7;
3,28167885955583E-6;
8,62673789671272E-6;
1,27915732690551E-5;
1,34749880897892E-5;
1,17430448742647E-5;
1,1273633813743E-5;
1,48281911113916E-5;
2,10246979214497E-5;
2,4440667722497E-5;
1,93931688949549E-5;
4,61436172365384E-6;
-1,49222037588289E-5;
-3,06968423123955E-5;
-3,60365148017951E-5;
-3,02568968594532E-5;
-1,85603515805471E-5;
-7,9630185581238E-6;
-2,49265616190051E-6;
-1,23927186560625E-6;
-3,75972917808189E-7;
2,92660259567113E-6;
8,09604135886313E-6;
1,21347724254192E-5;
1,28379766223114E-5;
1,11930089262692E-5;
1,06721153863881E-5;
1,39085174365118E-5;
1,96504430228314E-5;
2,28426638759381E-5;
1,81633978450647E-5;
4,40675856204013E-6;
-1,38010224609738E-5;
-2,85178291987748E-5;
-3,35243423406458E-5;
-2,81896032292217E-5;
-1,7367424033641E-5;
-7,5868088361989E-6;
-2,57214617526703E-6;
-1,43857435182822E-6;
-5,96876922777747E-7;
2,58268287539708E-6;
7,53084956771652E-6;
1,14064767026301E-5;
1,21171329453915E-5;
1,05698195926501E-5;
1,00143791276892E-5;
1,29387573511023E-5;
1,82184621857209E-5;
2,1178736023243E-5;
1,68767085685764E-5;
4,17527380611736E-6;
-1,26573431155031E-5;
-2,62773262019667E-5;
-3,09346560838655E-5;
-2,60515557441007E-5;
-1,61194149956956E-5;
-7,16491720771987E-6;
-2,6047966794542E-6;
-1,58823602506998E-6;
-7,76961467818308E-7;
2,25370936254337E-6;
6,94550487252263E-6;
1,06292920632403E-5;
1,13368252697782E-5;
9,89455250936288E-6;
9,31910278219688E-6;
1,19409456783551E-5;
1,67585211407493E-5;
1,94831157721884E-5;
1,55602179298939E-5;
3,92629680337031E-6;
-1,1512144094058E-5;
-2,40182954139707E-5;
-2,83177651226388E-5;
-2,38851280340692E-5;
-1,48430485220212E-5;
-6,71046073206444E-6;
-2,59728434984909E-6;
-1,69368182602508E-6;
-9,19776876681258E-7;
1,94247026665562E-6;
6,3521499675639E-6;
9,82270902341544E-6;
1,05181844836607E-5;
9,18549211325304E-6;
8,6023702935967E-6;
1,09338534447159E-5;
1,52958827806726E-5;
1,77848819712621E-5;
1,42370410789501E-5;
3,66542961221181E-6;
-1,03830060921124E-5;
-2,17769814838606E-5;
-2,57162104299031E-5;
-2,17262540663257E-5;
-1,35611703009288E-5;
-6,23495946283931E-6;
-2,55584225334236E-6;
-1,76014656447179E-6;
-1,02888277525851E-6;
1,65100206775134E-6;
5,76103311573399E-6;
9,00344817871401E-6;
9,67945035954045E-6;
8,45844127657034E-6;
7,87797544550733E-6;
9,93336651303202E-6;
1,38517906761921E-5;
1,61084905654046E-5;
1,29267180740883E-5;
3,39763179688804E-6;
-9,28431989259463E-6;
-1,95833925080966E-5;
-2,31653310084785E-5;
-1,96048756188593E-5;
-1,22929712876349E-5;
-5,74835640275842E-6;
-2,48617859755702E-6;
-1,79257263264958E-6;
-1,10773783663973E-6;
1,38073440126486E-6;
5,18072197889424E-6;
8,18571859505415E-6;
8,8362165418115E-6;
7,72693377151337E-6;
7,15763090019614E-6;
8,95274829334013E-6;
1,24438308678132E-5;
1,44741852646478E-5;
1,16455206895972E-5;
3,12726173296089E-6;
-8,22759856925733E-6;
-1,74618821747881E-5;
-2,06939214358828E-5;
-1,75454905434132E-5;
-1,10543101444705E-5;
-5,25913592709851E-6;
-2,39348813115777E-6;
-1,7956028661344E-6;
-1,15968918249678E-6;
1,13254623056774E-6;
4,61822201437801E-6;
7,3813869401386E-6;
8,00160432133206E-6;
7,00237219671988E-6;
6,45109580115084E-6;
8,00283934951397E-6;
1,10862414818163E-5;
1,28983588754176E-5;
1,04067200725853E-5;
2,85807734049759E-6;
-7,22180338242158E-6;
-1,54317490824739E-5;
-1,83249257879543E-5;
-1,55677157664882E-5;
-9,85806658201977E-6;
-4,77448756639982E-6;
-2,28249728935784E-6;
-1,77359496292672E-6;
-1,1879743940279E-6;
9,06811289942722E-7;
4,07910180339232E-6;
6,60016710079147E-6;
7,18645289083367E-6;
6,29418629527455E-6;
5,76633723193707E-6;
7,09227745288619E-6;
9,7902359006154E-6;
1,13939211417382E-5;
9,22085192034577E-6;
2,59325692944169E-6;
-6,27366228619169E-6;
-1,35078053894204E-5;
-1,60760635268363E-5;
-1,36868200028185E-5;
-8,71444792219242E-6;
-4,3004016110599E-6;
-2,15747875617318E-6;
-1,73061025292324E-6;
-1,19569802225168E-6;
7,03464566464933E-7;
3,56764057611508E-6;
5,84981345315849E-6;
6,39952411447264E-6;
5,61001745601771E-6;
5,10969908813408E-6;
6,22772306926518E-6;
8,56432133336084E-6;
9,97067836545026E-6;
8,09601641174414E-6;
2,33544560566961E-6;
-5,38792624824052E-6;
-1,17008858115058E-5;
-1,39604300776933E-5;
-1,19141960854339E-5;
-7,63126662271874E-6;
-3,84178655921853E-6;
-2,0222589839188E-6;
-1,67039895998953E-6;
-1,18579522510002E-6;
5,22092763276665E-7;
3,08698455215936E-6;
5,13635007011772E-6;
5,64772893204283E-6;
4,95590245851797E-6;
4,48608437067572E-6;
5,4140959543114E-6;
7,41462521519267E-6;
8,6357006115419E-6;
7,03816688822299E-6;
2,08681439542598E-6;
-4,56762192293351E-6;
-1,00183324487502E-5;
-1,1987044787483E-5;
-1,02578241448681E-5;
-6,61421443570081E-6;
-3,40255677509324E-6;
-1,88021623242112E-6;
-1,5963787872277E-6;
-1,16101695983731E-6;
3,6200005715732E-7;
2,63930018458156E-6;
4,46426379452526E-6;
4,93633650523817E-6;
4,33646289776344E-6;
3,89912649906528E-6;
4,65479659957382E-6;
6,34520934746222E-6;
7,39367141542031E-6;
6,0513617848717E-6;
1,84910475641936E-6;
-3,81428225061361E-6;
-8,46445886726419E-6;
-1,01613855112032E-5;
-8,72270568555335E-6;
-5,66711561199607E-6;
-2,98573393434132E-6;
-1,73431274673619E-6;
-1,51164805954498E-6;
-1,12390835336093E-6;
2,22264994153339E-7;
2,22589450921492E-6;
3,83669608331649E-6;
4,26915504428466E-6;
3,75505741443223E-6;
3,35134377279157E-6;
3,95189761495989E-6;
5,35833152916265E-6;
6,24720391121457E-6;
5,13802594845245E-6;
1,62366730165049E-6;
-3,12817731334016E-6;
-7,04097839179174E-6;
-8,48588557773561E-6;
-7,3112765868161E-6;
-4,79217644045042E-6;
-2,59354962878906E-6;
-1,58710914950725E-6;
-1,41897909876933E-6;
-1,07681149228203E-6;
1,01793678224851E-7;
1,84734382719133E-6;
3,25561159277846E-6;
3,64872839685411E-6;
3,21394463477424E-6;
2,84427307726748E-6;
3,30632592509778E-6;
4,4547107808633E-6;
5,19713848591566E-6;
4,29916461277474E-6;
1,41149952908964E-6;
-2,50852025195723E-6;
-5,74741552829823E-6;
-6,96040402516076E-6;
-6,02379975689952E-6;
-3,99022153161742E-6;
-2,2275420446776E-6;
-1,44080387825632E-6;
-1,32084522502988E-6;
-1,02186028564891E-6;
-6,38192141670592E-10;
1,50359844914687E-6;
2,72196575825717E-6;
3,07649379954666E-6;
2,71442682380963E-6;
2,37861832721161E-6;
2,71803761258215E-6;
3,6337587637581E-6;
4,24280561637186E-6;
3,53457962878985E-6;
1,21328889559752E-6;
-1,95365287922699E-6;
-4,58146525229578E-6;
-5,58263697420224E-6;
-4,85869833863356E-6;
-3,26090057511979E-6;
-1,88864282167115E-6;
-1,29724234994343E-6;
-1,21941810038592E-6;
-9,6098465730717E-7;
-8,63429455709338E-8;
1,19409177289752E-6;
2,23584860881854E-6;
2,55294167229959E-6;
2,2569853680284E-6;
1,95436652135961E-6;
2,18617553051719E-6;
2,89380865732324E-6;
3,3822915135325E-6;
2,84306642933499E-6;
1,02944571656997E-6;
-1,46121577900207E-6;
-3,5393281120389E-6;
-4,34851624955894E-6;
-3,8128961360498E-6;
-2,60288578634672E-6;
-1,57726283953229E-6;
-1,15796001010767E-6;
-1,11659232476255E-6;
-8,9591056170797E-7;
-1,56684752068136E-7;
9,17829954983586E-7;
1,79663699074153E-6;
2,07777541140986E-6;
1,8414106404449E-6;
1,57091138230496E-6;
1,70921315885229E-6;
2,23230493981438E-6;
2,61266004570917E-6;
2,22259095064812E-6;
8,60140076201067E-7;
-1,02830145049723E-6;
-2,61601412854747E-6;
-3,25254445648219E-6;
-2,88208842763137E-6;
-2,01404645398188E-6;
-1,29336378237651E-6;
-1,02419724527119E-6;
-1,01399295163987E-6;
-8,28165450453542E-7;
-2,13050862701041E-7;
6,73485842514943E-7;
1,40311589579731E-6;
1,65003309744376E-6;
1,46691895602045E-6;
1,22715591871254E-6;
1,2850843804251E-6;
1,64598842567308E-6;
1,93016262404104E-6;
1,6704536752012E-6;
7,05335971389135E-7;
-6,51581247736255E-7;
-1,80560067421554E-6;
-2,28811530564065E-6;
-2,06101483668513E-6;
-1,49160689124571E-6;
-1,0365305532578E-6;
-8,96932266461843E-7;
-9,12998675332661E-7;
-7,59086224640266E-7;
-2,56820565878142E-7;
4,59468041772106E-7;
1,05359100218667E-6;
1,26821615224212E-6;
1,13225602750631E-6;
9,21606320265495E-7;
9,11303042578887E-7;
1,13105919831358E-6;
1,33041737431233E-6;
1,18343075209348E-6;
5,64825906039783E-7;
-3,27434074336034E-7;
-1,10148522595392E-6;
-1,44778824223095E-6;
-1,34368668547238E-6;
-1,0322967958269E-6;
-8,06041873752332E-7;
-7,76905595572817E-7;
-8,14757230155747E-7;
-6,89831729870474E-7;
-2,89352175713217E-7;
2,73988063809255E-7;
7,45999947034505E-7;
9,30399139391146E-7;
8,35787830802343E-7;
6,52463889587349E-7;
5,85063812474936E-7;
6,83306355128266E-7;
8,08579231938944E-7;
7,57903484182222E-7;
4,38244242561188E-7;
-5,20486069758667E-8;
-4,96584683333688E-7;
-7,23530279659373E-7;
-7,23588861452831E-7;
-6,32469680012697E-7;
-6,00922452843339E-7;
-6,64649285299775E-7;
-7,20205314948635E-7;
-6,21387044118126E-7;
-3,11959816711799E-7;
1,15125758628743E-7;
4,77995579456339E-7;
6,34322878041394E-7;
5,75598472590047E-7;
4,17692672816708E-7;
3,03333295440029E-7;
2,98252280476564E-7;
3,59476246353352E-7;
3,89972217944335E-7;
3,25117523148261E-7;
1,78498541073468E-7;
1,64798932850338E-8;
-1,06935315534515E-7;
-1,93865438545098E-7;
-2,88223568846712E-7;
-4,20002240693222E-7;
-5,60505104719295E-7;
-6,30089084863407E-7;
-5,54584694172962E-7;
-3,25899540677817E-7;
-1,91272517611567E-8;
2,4703227990627E-7;
3,77491773880033E-7;
3,49548435673304E-7;
2,15093869758344E-7;
6,29361706479112E-8;
-2,8758258070881E-8;
-2,22558892782446E-8;
7,5557792293164E-8;
2,24862734785329E-7;
3,68149942148448E-7;
4,45224446083002E-7;
4,1059848269382E-7;
2,52529582188662E-7;
4,51021547288327E-9;
-2,61957345084977E-7;
-4,64655995111645E-7;
-5,44976181163783E-7;
-4,9010440378522E-7;
-3,32362026978872E-7;
-1,30816080776551E-7;
5,04336205987417E-8;
1,57240147779863E-7;
1,55356531332154E-7;
4,23599791449811E-8;
-1,39381791406147E-7;
-3,02448467822494E-7;
-3,42073628083998E-7;
-1,89513606107483E-7;
1,36828105086736E-7;
5,20816151182108E-7;
7,9717166274566E-7;
8,37708928023814E-7;
6,22701855962288E-7;
2,49874531874279E-7;
-1,25358537121156E-7;
-3,77141912753857E-7;
-4,65284740995208E-7;
-4,28494539172367E-7;
-3,32462405065659E-7;
-2,21989895911313E-7;
-1,1454129282311E-7;
-2,91983739620314E-8;
-9,35381144176296E-9;
-1,02870034723441E-7;
-3,06896924059378E-7;
-5,27543826341138E-7;
-6,05430984064397E-7;
-4,09440313346766E-7;
6,03023941939702E-8;
6,40316424073651E-7;
1,07973994317085E-6;
1,18294129864129E-6;
9,2369736171539E-7;
4,52020650289412E-7;
-8,70143915191176E-9;
-2,97881988024506E-7;
-3,91290739215532E-7;
-3,70182507818333E-7;
-3,27233478012598E-7;
-2,94668378121361E-7;
-2,50656402901537E-7;
-1,84629700257151E-7;
-1,4699764248494E-7;
-2,22973189409663E-7;
-4,42848253655408E-7;
-7,08694075020017E-7;
-8,17702126425819E-7;
-5,88375902754398E-7;
-5,46423247224379E-9;
7,30338294342079E-7;
1,30014779837001E-6;
1,4546322713811E-6;
1,16241841077271E-6;
6,15045576805945E-7;
8,9551597248693E-8;
-2,26698356770027E-7;
-3,23151110424009E-7;
-3,15484092181796E-7;
-3,17626576911749E-7;
-3,50816720916364E-7;
-3,60642325264022E-7;
-3,11855087045168E-7;
-2,5999194820333E-7;
-3,20302012509703E-7;
-5,50404903603795E-7;
-8,50424070476256E-7;
-9,84118089474395E-7;
-7,30386232302099E-7;
-6,12466143599607E-8;
7,94403468434642E-7;
1,46534512759003E-6;
1,66083376552907E-6;
1,34554247258101E-6;
7,42942577442674E-7;
1,70955816598284E-7;
-1,63328670229867E-7;
-2,60917871645128E-7;
-2,64617543500925E-7;
-3,04504574050776E-7;
-3,92322089285488E-7;
-4,471730667523E-7;
-4,13634742704024E-7;
-3,50718750316545E-7;
-3,9715516242972E-7;
-6,32625430075807E-7;
-9,57089267847282E-7;
-1,109716036248E-6;
-8,3939812978728E-7;
-1,07831397185962E-7;
8,35843537548566E-7;
1,581951923754E-6;
1,80922730384906E-6;
1,47946577469495E-6;
8,39562285287132E-7;
2,37048633826753E-7;
-1,07441463476045E-7;
-2,04552931973653E-7;
-2,17716628705186E-7;
