-9,84665597396324E-7;
-2,60530287780556E-6;
-3,26341602311739E-6;
-2,87849876835861E-6;
-1,92868727736645E-6;
-1,05848092817403E-6;
-6,28670372165892E-7;
-5,44062111433641E-7;
-4,5069536812181E-7;
-9,80379471086407E-8;
4,47807913214888E-7;
9,00857870246238E-7;
1,04844864317437E-6;
9,64880942065911E-7;
9,49529725952508E-7;
1,2401117593448E-6;
1,75255575585603E-6;
2,08430234959775E-6;
1,80085662313762E-6;
7,87266179115142E-7;
-6,15978066980073E-7;
-1,80834894445747E-6;
-2,31408372982681E-6;
-2,07075696944561E-6;
-1,41734671950672E-6;
-8,12765839417559E-7;
-5,14594058063637E-7;
-4,56999840722804E-7;
-3,91047962290621E-7;
-1,40541014409912E-7;
2,48483342910814E-7;
5,76175032417543E-7;
6,93765819706102E-7;
6,51706370388537E-7;
6,56120110230802E-7;
8,70754369328286E-7;
1,23872103428954E-6;
1,48549692825052E-6;
1,31438668556406E-6;
6,44355220896142E-7;
-2,99082851049554E-7;
-1,11547741388295E-6;
-1,48604719394247E-6;
-1,36448363917464E-6;
-9,68437941605176E-7;
-5,94844906007147E-7;
-4,1113049199177E-7;
-3,76969627648739E-7;
-3,34930190629387E-7;
-1,73590814094376E-7;
7,84539221340342E-8;
2,96351351645451E-7;
3,86994311766478E-7;
3,80158732853846E-7;
4,00928795502417E-7;
5,4874281999922E-7;
7,90275218232811E-7;
9,62163301163227E-7;
8,87406216505083E-7;
5,14605946612055E-7;
-3,01870592355454E-8;
-5,19802508647113E-7;
-7,7154833614517E-7;
-7,53374224139033E-7;
-5,78276779777227E-7;
-4,03321590589036E-7;
-3,18024765344864E-7;
-3,03955287380205E-7;
-2,82544199539015E-7;
-1,9821583776614E-7;
-6,4560535275743E-8;
5,81541490020305E-8;
1,24786923076931E-7;
1,47400261013334E-7;
1,81430318100024E-7;
2,71025294747208E-7;
4,03044210024219E-7;
5,09553998080517E-7;
5,16366804520589E-7;
3,9771011608328E-7;
1,94603048051283E-7;
-1,41374623794667E-8;
-1,62450831773264E-7;
-2,30773992659181E-7;
-2,42937461119915E-7;
-2,36662314772346E-7;
-2,34923136113117E-7;
-2,37853627761394E-7;
-2,34021362837666E-7;
-2,15412707526679E-7;
-1,82874353153851E-7;
-1,41733312104787E-7;
-9,63047888481828E-8;
-4,95063822093262E-8;
-5,00489931927641E-9;
3,44073400297519E-8;
7,26569407738174E-8;
1,22687211088265E-7;
1,97507320590824E-7;
2,93246356171381E-7;
3,79198792858114E-7;
4,08847371089826E-7;
3,49591510627128E-7;
2,10165044649169E-7;
4,16565145689567E-8;
-9,3228371362574E-8;
-1,61399219851E-7;
-1,78492384257926E-7;
-1,89428421036271E-7;
-2,26132138951941E-7;
-2,78788461107765E-7;
-3,06649457037154E-7;
-2,79770037316358E-7;
-2,13543984294555E-7;
-1,61054704261746E-7;
-1,64374642405376E-7;
-2,0536403391201E-7;
-2,03548391047731E-7;
-7,30608363376358E-8;
2,00696414810357E-7;
5,27470319172529E-7;
7,56490290762663E-7;
7,72972224227515E-7;
5,76357690492549E-7;
2,79643061414866E-7;
2,86825180456644E-8;
-9,69598813347463E-8;
-1,25634884949301E-7;
-1,48770990749216E-7;
-2,31276463460686E-7;
-3,54562197294675E-7;
-4,39900696530054E-7;
-4,29079948922994E-7;
-3,47686851559723E-7;
-2,89405208234586E-7;
-3,28599082573837E-7;
-4,35514311701231E-7;
-4,7429921382578E-7;
-2,99280001615841E-7;
1,19464134812749E-7;
6,43194795458733E-7;
1,03603920449215E-6;
1,11600253025615E-6;
8,74670082272612E-7;
4,75157986968545E-7;
1,30796097674467E-7;
-4,1072894703272E-8;
-7,89996085508381E-8;
-1,12007603686784E-7;
-2,31686220970321E-7;
-4,12385830810473E-7;
-5,44719811395482E-7;
-5,47633094119765E-7;
-4,54857921499748E-7;
-3,92703682211139E-7;
-4,61510070756492E-7;
-6,22251095934053E-7;
-6,94669192605345E-7;
-4,8508246333885E-7;
4,89019622271948E-8;
7,30014819071084E-7;
1,25454719958847E-6;
1,38680929293046E-6;
1,11183681564928E-6;
6,32276972031635E-7;
2,14841938941153E-7;
6,82621171236274E-9;
-3,82673630318611E-8;
-7,9053745706247E-8;
-2,28141932237425E-7;
-4,54357979986564E-7;
-6,24230062078602E-7;
-6,38730331853406E-7;
-5,37897804720327E-7;
-4,73527794361438E-7;
-5,66272481726851E-7;
-7,69925838014964E-7;
-8,69655463583619E-7;
-6,34336176337316E-7;
-1,16780189769038E-8;
7,91406960898647E-7;
1,41881239374244E-6;
1,59324017517814E-6;
1,29437457401635E-6;
7,54961922708126E-7;
2,82523927443412E-7;
4,73222142389275E-8;
-3,08775193839578E-9;
-4,97868978410929E-8;
-2,21359489823858E-7;
-4,82470215026986E-7;
-6,81412813774394E-7;
-7,05527919804577E-7;
-5,99534485492121E-7;
-5,34362623385989E-7;
-6,45943316328785E-7;
-8,8274666425915E-7;
-1,00409150721326E-6;
-7,50802599265782E-7;
-6,29903464006074E-8;
8,30657552141327E-7;
1,53531140373548E-6;
1,74279871231605E-6;
1,42853420523559E-6;
8,470274719866E-7;
3,355028607612E-7;
8,10081764981682E-8;
2,69072084805049E-8;
-2,40570062150782E-8;
-2,11988926098037E-7;
-4,98593477479658E-7;
-7,19093014839356E-7;
-7,51024771320724E-7;
-6,42361300751361E-7;
-5,77577590201409E-7;
-7,03444049232917E-7;
-9,64737174107302E-7;
-1,10260763800802E-6;
-8,38098334778291E-7;
-1,05761460593617E-7;
8,50838108165371E-7;
1,61016320736105E-6;
1,84259262122675E-6;
1,52024341947067E-6;
9,12107908706193E-7;
3,7538190196113E-7;
1,08476594627785E-7;
5,2095462190547E-8;
-1,68967118431631E-9;
-2,00614162070162E-7;
-5,04469913883015E-7;
-7,39916760004506E-7;
-7,78043078778523E-7;
-6,68826958987173E-7;
-6,05413108811247E-7;
-7,4154120870984E-7;
-1,01970961344918E-6;
-1,16959512556346E-6;
-8,99671551059644E-7;
-1,40723124848794E-7;
8,54801308587804E-7;
1,64909435100687E-6;
1,89929222274844E-6;
1,57508352640403E-6;
9,53636335078234E-7;
4,03686499524285E-7;
1,30309673479379E-7;
7,28665066379027E-8;
1,75074724032653E-8;
-1,8775748714939E-7;
-5,01708359991077E-7;
-7,46348565019343E-7;
-7,8921041414484E-7;
-6,81212627065713E-7;
-6,19965471330069E-7;
-7,62830828168344E-7;
-1,05124726573941E-6;
-1,2091877661713E-6;
-9,3877745131188E-7;
-1,6859063743547E-7;
8,45175666048514E-7;
1,65742161422441E-6;
1,91910505837123E-6;
1,59825544238623E-6;
9,74826628201529E-7;
4,21865444442935E-7;
1,47079713553906E-7;
8,96028141245765E-8;
3,3737650222282E-8;
-1,73874603803488E-7;
-4,91782872118798E-7;
-7,40657887864538E-7;
-7,86957939158483E-7;
-6,81638660074188E-7;
-6,23182633647133E-7;
-7,6972945635772E-7;
-1,06268755248591E-6;
-1,22523805059588E-6;
-9,58465464597452E-7;
-1,9006845328933E-7;
8,24355234504764E-7;
1,64003504165025E-6;
1,90776376091311E-6;
1,59457595082582E-6;
9,7866308460933E-7;
4,31274892212187E-7;
1,59333966712255E-7;
1,02689259724956E-7;
4,72202185210695E-8;
-1,59367805424954E-7;
-4,76031296468116E-7;
-7,24923214508616E-7;
-7,73518010012222E-7;
-6,72048461082716E-7;
-6,16862014166624E-7;
-7,6446824792372E-7;
-1,05711452430501E-6;
-1,22131500173651E-6;
-9,61566032236159E-7;
-2,05837634046568E-7;
7,94509142989285E-7;
1,60140834321195E-6;
1,87051874809394E-6;
1,56846450234657E-6;
9,67897077656986E-7;
4,33180144512805E-7;
1,67599269906525E-7;
1,12493793279161E-7;
5,81707849678924E-8;
-1,44579567359364E-7;
-4,556596853761E-7;
-7,01027738521574E-7;
-7,50917672739027E-7;
-6,54219298250558E-7;
-6,02644984712259E-7;
-7,49092793950593E-7;
-1,0373580970454E-6;
-1,20069355184092E-6;
-9,50694008748235E-7;
-2,16551152653221E-7;
7,57582879590649E-7;
1,54558712389204E-6;
1,81213743646644E-6;
1,5239454103738E-6;
9,45042393809963E-7;
4,28746339042173E-7;
1,72374196921981E-7;
1,19378805954152E-7;
6,68103625751784E-8;
-1,29801556397795E-7;
-4,31739533497858E-7;
-6,70668050213489E-7;
-7,20989976178567E-7;
-6,29753523906304E-7;
-5,82020117285718E-7;
-7,25460856439756E-7;
-1,0059927127197E-6;
-1,16635696814571E-6;
-9,28235570591641E-7;
-2,22829522952615E-7;
7,15307518636048E-7;
1,47620964957058E-6;
1,73691910586045E-6;
1,46465543824169E-6;
9,12377409862674E-7;
4,19043636170742E-7;
1,74127867308992E-7;
1,23685288111346E-7;
7,33594207312589E-8;
-1,15275354395917E-7;
-4,05223152279239E-7;
-6,35353855921422E-7;
-6,85372972647602E-7;
-6,00092238757683E-7;
-5,5632669451235E-7;
-6,95249561549328E-7;
-9,65340912169263E-7;
-1,12100470844776E-6;
-8,9636414746958E-7;
-2,25257388879421E-7;
6,6920760082224E-7;
1,39651796533382E-6;
1,64870703053702E-6;
1,39385263215994E-6;
8,71958326520153E-7;
4,05046027072406E-7;
1,73298098795648E-7;
1,25743121622876E-7;
7,8030661857896E-8;
-1,01202107056611E-7;
-3,76943542690964E-7;
-5,96427074465028E-7;
-6,45522791626229E-7;
-5,66515601989573E-7;
-5,26761311186258E-7;
-6,5995669527307E-7;
-9,17483440187084E-7;
-1,0670539464218E-6;
-8,57029114608563E-7;
-2,24382754895908E-7;
6,20611545279293E-7;
1,30936966991723E-6;
1,55090269738275E-6;
1,3144306783006E-6;
8,25611967199336E-7;
3,87630603158322E-7;
1,70289767554581E-7;
1,25857615335677E-7;
8,10333145577593E-8;
-8,77402706150201E-8;
-3,47621309102431E-7;
-5,55054954036251E-7;
-6,02716289686227E-7;
-5,30152661780081E-7;
-4,9438014288695E-7;
-6,20911825236515E-7;
-8,6426909252692E-7;
-1,00665829411881E-6;
-8,11978184027527E-7;
-2,20713399930465E-7;
0,00933400471493917;
0,022630947095887;
0,0163741837727575;
0,00943432511630758;
0,012170166747271;
0,00702653491335398;
0,00563498260359551;
0,00458283437018476;
0,000840582657224306;
0,00103231736135413;
-0,00119075736923239;
-0,00199246491132211;
-0,00280769500157309;
-0,00455417330874538;
-0,00488778510814519;
-0,00585647999021258;
-0,00594202459338464;
-0,00618343003532647;
-0,00699433942729499;
-0,00792091826336366;
-0,00934836763593666;
-0,0102417663283839;
-0,0105171613093099;
-0,0101073835445156;
-0,00920694324262734;
-0,00842995119991511;
-0,00783027497612664;
-0,00745735011177826;
-0,00704797045580601;
-0,00641874017244094;
-0,00567574185604262;
-0,00495895616562742;
-0,00445359394496511;
-0,00409122028548303;
-0,00366425061940226;
-0,00302710352120323;
-0,00222898059904611;
-0,00157370294452138;
-0,00136178718595263;
-0,00166545239472831;
-0,00222525492086831;
-0,00258603521493302;
-0,00240553442379857;
-0,0016561363887133;
-0,00062406778214453;
0,000316991997501332;
0,000963815274284694;
0,00137598617961127;
0,00176521373062735;
0,00227840984947258;
0,00287345273204904;
0,00337778334562564;
0,00366447535247488;
0,00378401205741857;
0,00392435864286328;
0,0042329558724058;
0,00465341545495222;
0,00492832492131369;
0,00478473905480126;
0,00416185849241612;
0,00329881589092865;
0,00260213629171407;
0,00238516458497077;
0,00267229122600678;
0,00320978107279045;
0,00366569377044137;
0,00385891169442893;
0,00384605696265011;
0,0038173852350561;
0,00390614689130837;
0,00407615843585537;
0,00417423664995158;
0,00408872623983728;
0,00386556393078108;
0,00367359735445458;
0,00364507101318759;
0,00373025648938882;
0,00370052124787096;
0,00331334616303157;
0,0025153679882325;
0,00151993910432804;
0,000688926855118084;
0,000300930961992634;
0,000377362589071977;
0,00069258995696793;
0,000951706182090242;
0,000993889736247528;
0,000869290089960502;
0,000746382317573318;
0,000742903014900151;
0,000826332112764724;
0,00086057268840974;
0,000746397359841561;
0,000524040229272691;
0,000342323300393884;
0,000317513639911716;
0,000404984837536546;
0,000402194166139713;
9,45709346373237E-5;
-0,000565356388853733;
-0,010723286686433;
-0,0246902560173275;
-0,0187054504047076;
-0,0116215813368987;
-0,0139967382437252;
-0,008535673443295;
-0,00701179618902634;
-0,00596892251299444;
-0,00223026540089652;
-0,00231729639010029;
8,95880108055905E-5;
0,00103433333478458;
0,0018644070273396;
0,00353230284235681;
0,00382364197122206;
0,00488750010359762;
0,00516605295411213;
0,00552085710311628;
0,00617785715009805;
0,00664160919354669;
0,00746093606263266;
0,00787825724904569;
0,00802238900860517;
0,00784122290696269;
0,00735507217422792;
0,00695128143721977;
0,00656003337443795;
0,00626852546543744;
0,00594152158442993;
0,00548464083393094;
0,004978396768952;
0,00445853126897572;
0,0040343411696184;
0,00366756902227726;
0,00326310207658452;
0,0027629121735279;
0,00218181622550359;
0,0016700156869515;
0,00136578020193832;
0,00130560949012367;
0,00137171878327627;
0,00134862270692309;
0,00107769701192372;
0,000544195250428843;
-0,00011593748172935;
-0,000724380939955296;
-0,00118424125229423;
-0,00152236250085623;
-0,00184017835852219;
-0,00220795546916987;
-0,00260544967964707;
-0,00294947163970632;
-0,00317802629474783;
-0,00331546533246837;
-0,00345314368321605;
-0,0036633765313917;
-0,00391912223017038;
-0,00409425072194774;
-0,00405426819119437;
-0,00376852202202749;
-0,00335480989548718;
-0,00301488311437431;
-0,00290541308329605;
-0,00303987193578043;
-0,00329256076245625;
-0,00349774695008635;
-0,0035645650712834;
-0,00352156931897549;
-0,00346515396406251;
-0,00346340537351396;
-0,00349864073045966;
-0,003493348041317;
-0,00339072248388965;
-0,00321439541026146;
-0,00305134896739325;
-0,00297026914406713;
-0,00294621719801474;
-0,00286133824065275;
-0,0025897424473308;
-0,00210321791191362;
-0,00151265960944518;
-0,00100745030710041;
-0,000734466069839308;
-0,000706108450449264;
-0,000804428744800279;
-0,000874044240513921;
-0,000829743228531162;
-0,000698049880717385;
-0,000568801007607473;
-0,000505247428352189;
-0,000490399188880462;
-0,000451391896560523;
-0,000334737853366017;
-0,000162010434031947;
-1,38095639217785E-5;
4,64405012044178E-5;
4,26391138062922E-5;
8,52109112331716E-5;
0,000291947912885357;
0,000689616253523616;
0,00117555856760829;
0,00157425266728085;
0,00174988057571388;
0,00169171274922832;
0,0015100872295031;
0,00134997056062642;
0,00129105046140612;
0,00130927558104888;
0,001321904004359;
0,00127090718991265;
0,00117264007309338;
0,00109516461989163;
0,00108851263623697;
0,00113318487674737;
0,00115508365413545;
0,00109604836385819;
0,000978663998622321;
0,000905405013282482;
0,000985415986370628;
0,00124367068044986;
0,00158566034378586;
0,00184973495648019;
0,00191099321185298;
0,00175992856564183;
0,00149856336870681;
0,00126068731502816;
0,00111984045504486;
0,00105400527497172;
0,000987176918228089;
0,000866126080285986;
0,000706019734593636;
0,000569492473943827;
0,000502535760468346;
0,000487243268677648;
0,000455604147915254;
0,000354276249312708;
0,000203992464338332;
9,86740288343205E-5;
0,000138244075847002;
0,000345420890439453;
0,000633495684836383;
0,000854383227962222;
0,000893745250322581;
0,000742864118691706;
0,000494969385082484;
0,000272223525560737;
0,000141640203759499;
8,29223386099328E-5;
2,65164429466326E-5;
-7,62939254651025E-5;
-0,000211814344803152;
-0,000323099741370592;
-0,00036842761587993;
-0,000364316766109948;
-0,000372889629565588;
-0,000442859674066685;
-0,000555503913447268;
-0,00062555921158218;
-0,000562385980088802;
-0,000345583743109522;
-5,41662254217763E-5;
0,000177198648845396;
0,00024459763916975;
0,000140040672788522;
-5,19939566271121E-5;
-0,000220867536928467;
-0,000306005577844545;
-0,00032596506726689;
-0,000343877118299943;
-0,000403951206412181;
-0,000493889018613179;
-0,00056228575918246;
-0,000571538958590789;
-0,000536701535536382;
-0,00051399687543415;
-0,00054748271297413;
-0,000620306178731097;
-0,000655593052466318;
-0,000571684933136657;
-0,000350309335877751;
-6,27865807407143E-5;
0,000169502039157029;
0,000252978026435674;
0,000180481378201768;
2,80523094620388E-5;
-0,000104802174653568;
-0,000163654685878158;
-0,000165217025566082;
-0,000166212796105251;
-0,000206323620703297;
-0,00027448352909004;
-0,000324554942589933;
-0,000322814490658689;
-0,000282758864723491;
-0,000254752878008097;
-0,000278216929185329;
-0,000338007584053594;
-0,000365286077886087;
-0,000286994987456224;
-8,68116718464704E-5;
0,000171505202799277;
0,000379533781151924;
0,000453773530850453;
0,000387930340399324;
0,000249945971357319;
0,000128633773753217;
7,25503804037797E-5;
6,68285015337388E-5;
6,09810024744008E-5;
1,97367233830289E-5;
-4,69885158406173E-5;
-9,80955275690141E-5;
-0,000103561015612222;
-7,53531811892899E-5;
-5,81791034734218E-5;
-8,69874793756636E-5;
-0,00014826916143469;
-0,000180893856419338;
-0,000120048391830284;
4,87312718308662E-5;
0,000268943253575069;
0,000444580295568253;
0,000501777566029438;
0,000435044416411757;
0,00030454689731113;
0,000188848436422507;
0,000130874941799181;
0,000117502301112262;
0,000104175086503007;
5,98020828020497E-5;
-6,83126876337121E-6;
-5,94628191657127E-5;
-7,16263495244664E-5;
-5,38642212495072E-5;
-4,55296275264634E-5;
-7,73532874901428E-5;
-0,000137420984173329;
-0,000171970039063204;
-0,00012405531037125;
1,89932985625131E-5;
0,000207535553045843;
0,000357312249133476;
0,000403557786497105;
0,000341497700629498;
0,000223884349353664;
0,000119532694389426;
6,60045073250453E-5;
5,17958273119281E-5;
3,79321345933757E-5;
-2,75811434335776E-6;
-6,25911434037737E-5;
-0,000109905190470418;
-0,000121619649789723;
-0,000106954991419034;
-0,000100237264884859;
-0,000128245241687863;
-0,000180594325966272;
-0,00021048684526561;
-0,000168405084367692;
-4,33796069198707E-5;
0,00012139593523919;
0,000252699474737023;
0,000294302800712618;
0,000242084346958683;
0,000141813824682596;
5,3139476534867E-5;
8,5808522707823E-6;
-1,85060442698575E-6;
-1,19005284126359E-5;
-4,50723859378158E-5;
-9,47208092279602E-5;
-0,000133496559349693;
-0,000141489065877885;
-0,000126680005250991;
-0,000118691377541331;
-0,000140606687177146;
-0,00018347130817738;
-0,000206992661969723;
-0,00016858292093273;
-5,88500352604651E-5;
8,50385354696942E-5;
0,000200163429621232;
0,000238260297535608;
0,000195817853078414;
0,000112103758612208;
3,82365776613134E-5;
2,05230249616717E-6;
-5,01649166839165E-6;
-1,18421684378344E-5;
-3,8509733908536E-5;
-7,93310642057396E-5;
-0,000110953947928616;
-0,000116400478529833;
-0,000102490848733239;
-9,44720426013429E-5;
-0,000111991837045265;
-0,000147413589721553;
-0,000166464014089728;
-0,000132962973356424;
-3,89653378577066E-5;
8,39524381729797E-5;
0,00018241352447138;
0,000215525519213295;
0,000180345728251321;
0,000110137990094252;
4,81485508696265E-5;
1,78975225091555E-5;
1,21381401118851E-5;
6,50171343518542E-6;
-1,59384891655998E-5;
-5,03720894678461E-5;
-7,71249180887211E-5;
-8,19141512917153E-5;
-7,04839941212245E-5;
-6,40493249169525E-5;
-7,90935189324641E-5;
-0,000109189826319142;
-0,000125595787056308;
-9,80149930865864E-5;
-1,9825306261865E-5;
8,25364590276924E-5;
0,000164455740228618;
0,000191804385213286;
0,000162159650143219;
0,000103279666290354;
5,1196283990979E-5;
2,54773929054976E-5;
2,00870893146508E-5;
1,47794093402747E-5;
-4,48377901016253E-6;
-3,36966760460723E-5;
-5,65490486883602E-5;
-6,12214295615416E-5;
-5,24751498660231E-5;
-4,78440496558814E-5;
-6,09253903133832E-5;
-8,63995481203653E-5;
-0,000100571239331577;
-7,8509395583014E-5;
-1,47972184903764E-5;
6,88110972253855E-5;
0,000135679134211488;
0,000157832841184958;
0,000133317947981178;
8,48803136160736E-5;
4,19892348786045E-5;
2,06187087219863E-5;
1,58311963624035E-5;
1,11222400071276E-5;
-4,92752303470141E-6;
-2,90460456271499E-5;
-4,79773441448701E-5;
-5,21374773495358E-5;
-4,53986328110465E-5;
-4,19619494121961E-5;
-5,28141342409963E-5;
-7,3641318182886E-5;
-8,53181739457163E-5;
-6,77680987559094E-5;
-1,66643071197975E-5;
5,04710691612169E-5;
0,00010420821521609;
0,000122128112823481;
0,000102696078607189;
6,41322414934398E-5;
2,99847783750006E-5;
1,29864919360245E-5;
9,18899674488263E-6;
5,45716916089327E-6;
-7,27207794334985E-6;
-2,63891620746989E-5;
-4,13875512604061E-5;
-4,46944331120904E-5;
-3,93827463201482E-5;
-3,6659146383841E-5;
-4,51665061356444E-5;
-6,14955550480491E-5;
-7,06237085477311E-5;
-5,68295075485712E-5;
-1,67624679067876E-5;
3,58504753351517E-5;
7,80377879934755E-5;
9,23556995574502E-5;
7,76442122077374E-5;
4,80724348867726E-5;
2,18917379220026E-5;
8,93737557487202E-6;
6,14584150711189E-6;
3,39255247762876E-6;
-6,28155999696699E-6;
-2,08586062188794E-5;
-3,22852078659157E-5;
-3,4781474237642E-5;
-3,07066981128522E-5;
-2,85982561701884E-5;
-3,50111006109699E-5;
-4,73416233294445E-5;
-5,42185334559676E-5;
-4,3793748463024E-5;
-1,35831326121606E-5;
2,60616701339814E-5;
5,79084067474477E-5;
6,89321996417205E-5;
5,83057009237994E-5;
3,66037857403847E-5;
1,73808069051184E-5;
7,90442082859667E-6;
5,89619951039876E-6;
3,89850610822637E-6;
-3,18500794603239E-6;
-1,38600953251603E-5;
-2,22428636471941E-5;
-2,41377117374816E-5;
-2,12722766544156E-5;
-1,9825496837008E-5;
-2,45088163554898E-5;
-3,34298472234172E-5;
-3,84380396602379E-5;
-3,10997006235459E-5;
-9,69287915878061E-6;
1,84053789768191E-5;
4,10169652687676E-5;
4,90061395645501E-5;
4,18381150591248E-5;
2,69277033212531E-5;
1,37019275875157E-5;
7,17372233674326E-6;
5,75433707007792E-6;
4,32641991919266E-6;
-5,7301130665358E-7;
-7,90922918264173E-6;
-1,36994589689407E-5;
-1,51353468001403E-5;
-1,33911671885252E-5;
-1,25822103990737E-5;
-1,58081008995947E-5;
-2,17987557413041E-5;
-2,52178617680436E-5;
-2,06130884211089E-5;
-6,92704730743315E-6;
1,10588267642616E-5;
2,55735322571593E-5;
3,08704658421094E-5;
2,66693658106801E-5;
1,76338598326258E-5;
9,59986383770748E-6;
5,61969456072128E-6;
4,70403043228854E-6;
3,76814227746908E-6;
7,66490993840961E-7;
-3,66567813174742E-6;
-7,19485478253306E-6;
-8,2152273706557E-6;
-7,42153452014475E-6;
-7,14227781842364E-6;
-9,08270830364699E-6;
-1,25117869798295E-5;
-1,45266474093729E-5;
-1,22509483028337E-5;
-5,200778297714E-6;
4,08305429996486E-6;
1,1631176241488E-5;
1,4618552715519E-5;
1,29839690249078E-5;
9,02195044599888E-6;
5,47809476712651E-6;
3,71859406199046E-6;
3,26928321246249E-6;
2,79109046629179E-6;
1,45468921028176E-6;
-4,48082315126808E-7;
-1,99826720292683E-6;
-2,62056768510627E-6;
-2,59889435669719E-6;
-2,73249156924813E-6;
-3,53433813367729E-6;
-4,73485047629362E-6;
-5,51057372671194E-6;
-5,1845116243503E-6;
-3,76164148341229E-6;
-1,87164296793608E-6;
-2,43970987461961E-7;
7,84416476428998E-7;
1,3386709647292E-6;
1,698497353087E-6;
1,98321575147808E-6;
2,12716957301861E-6;
2,0934602167222E-6;
2,02332872490285E-6;
2,11775363258152E-6;
2,37720244009647E-6;
2,5231413116673E-6;
2,25938187067446E-6;
1,64950055376141E-6;
1,18592527819449E-6;
1,36165008435725E-6;
2,05655445445932E-6;
2,34123014819438E-6;
1,04051731850409E-6;
-2,26149997852296E-6;
-6,58674757502149E-6;
-9,94172499899503E-6;
-1,05740654891657E-5;
-8,20218853746911E-6;
-4,23540141902637E-6;
-7,54144694957366E-7;
9,77711358838575E-7;
1,28907383989215E-6;
1,55802304289307E-6;
2,84537745316302E-6;
4,90807170877146E-6;
6,46914729401957E-6;
6,50669796607872E-6;
5,37377921029099E-6;
4,63695857011044E-6;
5,62473421166669E-6;
7,89300814480958E-6;
9,05823159275449E-6;
6,41052657473787E-6;
-8,05739497725564E-7;
-1,0281938972558E-5;
-1,77737462911892E-5;
-1,98034890353471E-5;
-1,59605052192653E-5;
-9,04595489838693E-6;
-2,95119092690084E-6;
7,45907579066636E-8;
6,60985885555265E-7;
1,20120658484005E-6;
3,46075273260631E-6;
6,99655937660749E-6;
9,71431052082438E-6;
9,99888054408781E-6;
8,44002621284763E-6;
7,48080352441349E-6;
9,13039263578991E-6;
1,26803773267861E-5;
1,45641385978276E-5;
1,08249949105729E-5;
4,32121803470845E-7;
-1,32266011624729E-5;
-2,40838433396495E-5;
-2,72663637920676E-5;
-2,22592409372091E-5;
-1,2986687560189E-5;
-4,79931414121793E-6;
-7,3918597542341E-7;
6,50971357010332E-8;
8,21575225535367E-7;
3,86032132544814E-6;
8,5775699088855E-6;
1,22250031436529E-5;
1,27137544905825E-5;
1,08226727146027E-5;
9,69313385499301E-6;
1,18755150389796E-5;
1,64508121310401E-5;
1,89133409397559E-5;
1,43186767380179E-5;
1,41882353996661E-6;
-1,55450464610414E-5;
-2,90671162994688E-5;
-3,31748558404531E-5;
-2,72714566102812E-5;
-1,61629784235966E-5;
-6,3438406056939E-6;
-1,4764081350388E-6;
-5,00239676663565E-7;
4,28074080145938E-7;
4,0777081909067E-6;
9,71939927955033E-6;
1,40970325129232E-5;
1,47548823983818E-5;
1,26183103093411E-5;
1,13677703540437E-5;
1,39702265463458E-5;
1,93440919894487E-5;
2,22624680023138E-5;
1,70243827975969E-5;
2,21644840131201E-6;
-1,72683189263359E-5;
-3,28283062659856E-5;
-3,76556667265701E-5;
-3,10916958343287E-5;
-1,86096932407488E-5;
-7,56728808739409E-6;
-2,09367461979093E-6;
-9,86240926891346E-7;
7,43959419442157E-8;
4,185136647638E-6;
1,05224979442017E-5;
1,5452310052275E-5;
1,62467979702357E-5;
1,39401065713354E-5;
1,26106782570479E-5;
1,55317144459207E-5;
2,15015740802634E-5;
2,47649633373741E-5;
1,90689023863934E-5;
2,88043848096523E-6;
-1,84335650277865E-5;
-3,54784203579542E-5;
-4,08440778302453E-5;
-3,38276629763019E-5;
-2,03804774789956E-5;
-8,47599036616547E-6;
-2,57497760984775E-6;
-1,37389206596141E-6;
-2,17664205770078E-7;
4,22034375611054E-6;
1,10499700143561E-5;
1,63730799653014E-5;
1,72731745920209E-5;
1,48600592603539E-5;
1,34863125291682E-5;
1,66345504412658E-5;
2,30203970921709E-5;
2,65292303109197E-5;
2,05353410667982E-5;
3,42639542275151E-6;
-1,91126924736871E-5;
-3,7159044151848E-5;
-4,29043446312044E-5;
-3,56171294602286E-5;
-2,15614560719409E-5;
-9,11067498593153E-6;
-2,93908978251039E-6;
-1,67816155767787E-6;
-4,59406900711157E-7;
4,18819935239524E-6;
1,13318120867148E-5;
1,69086570095851E-5;
1,78860266937474E-5;
1,54205881481027E-5;
1,40314145808086E-5;
1,73264339664001E-5;
2,39709433813049E-5;
2,76377338345046E-5;
2,14838999070108E-5;
3,85260207023343E-6;
-1,93881462490753E-5;
-3,80166673731262E-5;
-4,40029476567012E-5;
-3,66005097287908E-5;
-2,22434056421342E-5;
-9,5183240601939E-6;
-3,21115518902719E-6;
-1,91935113906432E-6;
-6,66443878618869E-7;
4,08942413737701E-6;
1,13934184442397E-5;
1,71036508823356E-5;
1,81336085744465E-5;
1,56620710877085E-5;
1,4282089738379E-5;
1,76546539330751E-5;
2,44225683294048E-5;
2,81719627016175E-5;
2,19761421714168E-5;
4,16369940128294E-6;
-1,93298084758881E-5;
-3,8180264381801E-5;
-4,42870582947915E-5;
-3,69004116903176E-5;
-2,25024968782454E-5;
-9,73412167966938E-6;
-3,40578608067841E-6;
-2,10731285132355E-6;
-8,44045275926103E-7;
3,93409614374687E-6;
1,12679031772094E-5;
1,70091119093664E-5;
1,80704606321988E-5;
1,56318257692489E-5;
1,42817187103561E-5;
1,76729237593824E-5;
2,4449344278708E-5;
2,82171333637996E-5;
2,20787703451475E-5;
4,37364902122883E-6;
-1,89927641651694E-5;
-3,77597879064306E-5;
-4,38838214611303E-5;
-3,66217534076396E-5;
-2,24012599492396E-5;
-9,78322281163826E-6;
-3,52954227065653E-6;
-2,24456836181719E-6;
-9,90862944050231E-7;
3,73733364012883E-6;
1,09912240702765E-5;
1,66771659965064E-5;
1,77515926833741E-5;
1,53779038292976E-5;
1,40744205479714E-5;
1,74345152362174E-5;
2,41229058738919E-5;
2,78547976999077E-5;
2,18560601601545E-5;
4,49807761169977E-6;
-1,84250122880225E-5;
-3,68539040141306E-5;
-4,29080951138214E-5;
-3,5859523545437E-5;
-2,19963322894041E-5;
-9,68844925866428E-6;
-3,58856756617678E-6;
-2,33384277396659E-6;
-1,10634074028147E-6;
3,51202313977126E-6;
1,05950808891271E-5;
1,61540804994386E-5;
1,72257594563226E-5;
1,49425953787173E-5;
1,36987760823669E-5;
1,69862371467553E-5;
2,35066824514013E-5;
2,71573421897679E-5;
2,13646337277554E-5;
4,5493006514434E-6;
-1,76721646079332E-5;
-3,55544061161268E-5;
-4,14665629569438E-5;
-3,47025379398295E-5;
-2,13418744146038E-5;
-9,47338697524359E-6;
-3,59136364426083E-6;
-2,38055217221879E-6;
-1,19290896610273E-6;
3,2669404711231E-6;
1,01053338148266E-5;
1,54789772523012E-5;
1,65344269032488E-5;
1,4361624293222E-5;
1,31872667816988E-5;
1,63681164224614E-5;
2,26558380302638E-5;
2,61881538205696E-5;
2,06537913042457E-5;
4,53678226022906E-6;
-1,67769083800265E-5;
-3,39455896248792E-5;
-3,96569575800468E-5;
-3,32324742889323E-5;
-2,04883749873462E-5;
-9,16096790536954E-6;
-3,54721648001309E-6;
-2,391105270637E-6;
-1,25418346515814E-6;
3,00864467070157E-6;
9,54400582245072E-6;
1,46859252711024E-5;
1,57139181307469E-5;
1,36663179786447E-5;
1,25684645428281E-5;
1,56156232211616E-5;
2,16195394722059E-5;
2,50039110326431E-5;
1,97677512742418E-5;
4,46921622637209E-6;
-1,57771259737677E-5;
-3,21025154888272E-5;
-3,75663846404027E-5;
-3,15221553744675E-5;
-1,94808422125729E-5;
-8,7716107371643E-6;
-3,46434406279571E-6;
-2,37110475599631E-6;
-1,29322338606305E-6;
2,74319945960018E-6;
8,93099477857621E-6;
1,38056157484484E-5;
1,47970190822302E-5;
1,28851038922937E-5;
1,18684113607315E-5;
1,47609966367235E-5;
2,04422635504075E-5;
2,36558318458671E-5;
1,8746744382678E-5;
4,35537452342881E-6;
-1,47053377550789E-5;
-3,0090718543441E-5;
-3,52711565201514E-5;
-2,96353646241314E-5;
-1,83585524226742E-5;
-8,32291089611422E-6;
-3,34957892504104E-6;
-2,32508738688691E-6;
-1,31233370090691E-6;
2,47634917350291E-6;
8,28426139392964E-6;
1,28655548534567E-5;
1,38131070023538E-5;
1,20435451652474E-5;
1,11106005363755E-5;
1,38332069480721E-5;
1,91637704187931E-5;
2,21896414341906E-5;
1,76268684185827E-5;
4,20371151229815E-6;
-1,35893983460678E-5;
-2,79671300594381E-5;
-3,28377954443061E-5;
-2,76277772669866E-5;
-1,71558077772518E-5;
-7,83024788815606E-6;
-3,20893286898326E-6;
-2,25708447074053E-6;
-1,31360356674588E-6;
2,21303236666733E-6;
7,61941584023538E-6;
1,18897025038661E-5;
1,27878069425535E-5;
1,11639664909285E-5;
1,03155726102296E-5;
1,28575944586548E-5;
1,78188340129348E-5;
2,06453472321117E-5;
1,64397876588303E-5;
4,02185723499556E-6;
-1,24532840350057E-5;
-2,57810778043451E-5;
-3,03240703871544E-5;
-2,55478646864588E-5;
-1,5902637163143E-5;
-7,30730317615616E-6;
-3,04798891342642E-6;
-2,17097033542114E-6;
-1,29923457361282E-6;
1,95712910083314E-6;
6,94959111567096E-6;
1,08984426567219E-5;
1,17429778032925E-5;
1,0265426259474E-5;
9,50089110558614E-6;
1,18559009576409E-5;
1,64373759941085E-5;
1,90574326929174E-5;
1,52128546368795E-5;
3,81651903350314E-6;
-1,1317474368285E-5;
-2,35748901647737E-5;
-2,77796589838094E-5;
-2,34374223633842E-5;
-1,46250909146048E-5;
-6,76615840907388E-6;
-2,87190861413621E-6;
-2,07044688094613E-6;
-1,27148433052833E-6;
1,71160776005128E-6;
6,28569062637742E-6;
9,90891386366766E-6;
1,06970767730972E-5;
9,36404328848757E-6;
8,68144362413668E-6;
1,08466282341609E-5;
1,50449158229903E-5;
1,74553613794854E-5;
1,39695364727428E-5;
3,59365154277499E-6;
-1,01991119584232E-5;
-2,13843060463384E-5;
-2,52466261913366E-5;
-2,13319356183452E-5;
-1,33453971650215E-5;
-6,21726065897669E-6;
-2,68529639345632E-6;
-1,95887465063323E-6;
-1,23248243997974E-6;
1,47875778250159E-6;
5,63672019204989E-6;
8,93542033595299E-6;
9,66556118772116E-6;
8,47335816213888E-6;
7,86979381172513E-6;
9,84541209735531E-6;
1,36630322067465E-5;
1,58640850604451E-5;
1,27298020985629E-5;
3,35859011586482E-6;
-9,11220220227032E-6;
-1,92389420364209E-5;
-2,27599602383229E-5;
-1,92610018968743E-5;
-1,20821745511052E-5;
-5,66945337829382E-6;
-2,49215208318731E-6;
-1,83922705021676E-6;
-1,1841778448658E-6;
1,26031560020465E-6;
5,01001647128527E-6;
7,98972430674839E-6;
8,66119749076066E-6;
7,60459689372753E-6;
7,07639094386144E-6;
8,86529004254028E-6;
1,23097146667859E-5;
1,43044200606688E-5;
1,15104235039792E-5;
3,11608941705794E-6;
-8,06791004934031E-6;
-1,71628548249863E-5;
-2,03482345655463E-5;
-1,72488705149256E-5;
-1,08507608254489E-5;
-5,13013571397635E-6;
-2,29593458965553E-6;
-1,71412379324506E-6;
-1,12834964684897E-6;
1,05751496903184E-6;
4,41138746826731E-6;
7,0812647155179E-6;
7,69428335175116E-6;
6,76685369692167E-6;
6,30974634814928E-6;
7,91690217898712E-6;
1,09996514089114E-5;
1,27933939035554E-5;
1,03252097499766E-5;
2,87030356966217E-6;
-7,07490868998664E-6;
-1,51751411644426E-5;
-1,80342620235524E-5;
-1,53150003924046E-5;
-9,66356744962187E-6;
-4,60541204604001E-6;
-2,09962455464456E-6;
-1,5858836598435E-6;
-1,06664262802078E-6;
8,7111437552814E-7;
3,84524622487709E-6;
6,21737174707852E-6;
6,77287411894107E-6;
5,96727491191097E-6;
5,57658696743356E-6;
7,00869948663239E-6;
9,74452729386352E-6;
1,13445883498758E-5;
9,18527499249277E-6;
2,62480704210535E-6;
-6,13967279322625E-6;
-1,32904807133768E-5;
-1,58357269383755E-5;
-1,34745700510251E-5;
-8,53037897176748E-6;
-4,10022867506491E-6;
-1,90576872819264E-6;
-1,45654673293298E-6;
-1,00057601584447E-6;
7,01457714051126E-7;
3,3147722300418E-6;
5,4035009086483E-6;
5,90302534789449E-6;
5,21127622911834E-6;
4,88205615390274E-6;
6,14717725522337E-6;
8,55334855006007E-6;
9,96850550575697E-6;
8,09930853320921E-6;
2,38264106662125E-6;
-5,26674018389956E-6;
-1,15196480210562E-5;
-1,37657583125553E-5;
-1,17389496095679E-5;
-7,45863885194264E-6;
-3,61848768249448E-6;
-1,71651188975014E-6;
-1,32788155982185E-6;
-9,31526315936362E-7;
5,48551094520055E-7;
2,82207252665075E-6;
4,64346472203194E-6;
5,08904538694308E-6;
4,50275084394275E-6;
4,22989811267478E-6;
5,3371119948563E-6;
7,43275332651511E-6;
8,67292358915483E-6;
7,07386055411205E-6;
2,14635661119824E-6;
-4,45896308246486E-6;
-9,8699798349427E-6;
-1,18334719708098E-5;
-1,0116144893576E-5;
-6,45370679344687E-6;
-3,16314119567239E-6;
-1,5336121333596E-6;
-1,20139220911019E-6;
-8,60723520976161E-7;
4,12122994887982E-7;
2,36833937494778E-6;
3,93965869238037E-6;
4,33371905289803E-6;
3,84427023978354E-6;
3,62264514881223E-6;
4,58177479025774E-6;
6,38730808981814E-6;
7,46323075608683E-6;
6,11358428591353E-6;
1,91806209252402E-6;
-3,71772960818573E-6;
-8,34582704257772E-6;
-1,00444905882802E-5;
-8,6112320731174E-6;
-5,51912220877092E-6;
-2,73630479907784E-6;
-1,35847933827055E-6;
-1,07833957193439E-6;
-7,8925543479641E-7;
2,91681409112482E-7;
1,9539822223623E-6;
3,29325576137942E-6;
3,63852142416013E-6;
3,2372590323862E-6;
3,06176583516226E-6;
3,88312239393755E-6;
5,41976857324046E-6;
6,34272923135302E-6;
5,22148524982042E-6;
1,69945588755189E-6;
-3,04319988205039E-6;
-6,94898614006928E-6;
-8,40143579445104E-6;
-7,22675584051653E-6;
-4,65684718164089E-6;
-2,33936573932196E-6;
-1,1922098280471E-6;
-9,59758308363196E-7;
-7,18075794385211E-7;
1,86549466646328E-7;
1,57874524527607E-6;
2,70438343407349E-6;
3,00380223973961E-6;
2,68216379114537E-6;
2,54782900792388E-6;
3,24198384896422E-6;
4,53133706976438E-6;
5,31292984220262E-6;
4,39913055090665E-6;
1,49186792973959E-6;
-2,43449692474113E-6;
-5,67909232910456E-6;
-6,90438005571092E-6;
-5,96311457746021E-6;
-3,86749762878579E-6;
-1,97307488304684E-6;
-1,03562672833213E-6;
-8,46482949356818E-7;
-6,48005459228795E-7;
9,59074839825374E-8;
1,24182242604853E-6;
2,17230283582267E-6;
2,42896456692278E-6;
2,17859371650322E-6;
2,08062752582143E-6;
2,65823235168638E-6;
3,72189418577681E-6;
4,37380934731585E-6;
3,64686197789682E-6;
1,29628714106694E-6;
-1,88990491584921E-6;
-4,53397903432763E-6;
-5,55126374921593E-6;
-4,81889649972525E-6;
-3,15055036621672E-6;
-1,63764124173513E-6;
-8,89299866102732E-7;
-7,39162042768681E-7;
-5,79746139488291E-7;
1,88387203649183E-8;
9,41962636762181E-7;
1,69554904860268E-6;
1,91263659996616E-6;
1,72547844546769E-6;
1,65931087157027E-6;
2,13093367678929E-6;
2,99021087658582E-6;
3,52406527705388E-6;
2,96398710317487E-6;
1,11341355883589E-6;
-1,40701713969295E-6;
-3,51000315702185E-6;
-4,33827019511739E-6;
-3,79119594649204E-6;
-2,50453267872333E-6;
-1,33281453911442E-6;
-7,53582854272533E-7;
-6,3827485807478E-7;
-5,13884380314864E-7;
-4,56489402733317E-8;
6,7756211883533E-7;
1,27208479138082E-6;
1,4528093769243E-6;
1,32118357198026E-6;
1,28250994867256E-6;
1,65850477529062E-6;
2,33415266169444E-6;
2,76133736152017E-6;
2,34895377927983E-6;
9,43677240151114E-7;
-9,82900873653535E-7;
-2,60233902609624E-6;
-3,26016916071112E-6;
-2,87590077070557E-6;
-1,927200813226E-6;
-1,05795972237265E-6;
-6,28638515695339E-7;
-5,44153197720539E-7;
-4,50896737280627E-7;
-9,85867292417913E-8;
4,46745775430644E-7;
8,99415935128876E-7;
1,04697567007986E-6;
9,63633356606943E-7;
9,48431508801835E-7;
1,23882537953134E-6;
1,75085051803249E-6;
2,08241200013308E-6;
1,79950604124853E-6;
7,87283903186056E-7;
-6,14221818634176E-7;
-1,80524990281939E-6;
-2,31062018200536E-6;
-2,06794123264568E-6;
-1,41569003563821E-6;
-8,12125068678903E-7;
-5,14465861146161E-7;
-4,56995675912815E-7;
-3,9116085649489E-7;
-1,41027044640467E-7;
2,47441415007566E-7;
5,74710096826328E-7;
6,92246687152219E-7;
6,50405976104396E-7;
6,54956971534804E-7;
8,6936866460977E-7;
1,23686299540857E-6;
1,48340938451581E-6;
1,3128395009578E-6;
6,44236527129679E-7;
-2,97362464469903E-7;
-1,11231190696546E-6;
-1,48245346820039E-6;
-1,3615271523271E-6;
-9,66662152457077E-7;
-5,94111901594429E-7;
-4,10923724329264E-7;
-3,76885715670248E-7;
-3,34964683848966E-7;
-1,74015249543102E-7;
7,74441290355243E-8;
2,94888492875731E-7;
3,85458128985789E-7;
3,78832502990897E-7;
3,99729271113669E-7;
5,47294417597872E-7;
7,88312814196592E-7;
9,59938081825972E-7;
8,85715215254201E-7;
5,14371649976284E-7;
-2,85204538598276E-8;
-5,16625904912004E-7;
-7,67899743075371E-7;
-7,50341172083694E-7;
-5,76426775549891E-7;
-4,02524168457223E-7;
-3,17754343213271E-7;
-3,0380439205493E-7;
-2,82511603781947E-7;
-1,98582777507094E-7;
-6,55292458450489E-8;
5,67153349893105E-8;
1,23260634864362E-7;
1,46074063127403E-7;
1,80216902591163E-7;
2,69543849635646E-7;
4,01025056311587E-7;
5,07244050782176E-7;
5,14576676084911E-7;
3,97383643298675E-7;
1,96197945395381E-7;
-1,09999042625159E-8;
-1,58807092924811E-7;
-2,2772288063789E-7;
-2,4105319120456E-7;
-2,35819111999992E-7;
-2,34602703512515E-7;
-2,37649983621956E-7;
-2,33932199015082E-7;
-2,15724130441009E-7;
-1,83793845163181E-7;
-1,43130242561202E-7;
-9,78005630036602E-8;
-5,08154494535989E-8;
-6,21131866540687E-9;
3,2920783068492E-8;
7,06175176341233E-8;
1,20340685525868E-7;
1,95660838958904E-7;
2,92845277957381E-7;
3,8071023516369E-7;
4,11906526137721E-7;
3,5317706923661E-7;
2,13187356325958E-7;
4,35430718595874E-8;
-9,23584584421474E-8;
-1,61039758117328E-7;
-1,7824469955273E-7;
-1,89292147461783E-7;
-2,26391361332176E-7;
-2,79651528364627E-7;
-3,07991975134677E-7;
-2,81218486195865E-7;
-2,14818962410969E-7;
-1,62239133264462E-7;
-1,65843825742689E-7;
-2,07390198463023E-7;
-2,05891517653815E-7;
-7,49285059419149E-8;
2,00236263840965E-7;
5,28888371386342E-7;
7,59438879155639E-7;
7,76455959315162E-7;
5,7931188343888E-7;
2,81504772958437E-7;
2,95614013799402E-8;
-9,65735795857284E-8;
-1,25354163517947E-7;
-1,48597681427315E-7;
-2,31488278497697E-7;
-3,5536585368621E-7;
-4,41177961776235E-7;
-4,3046742411962E-7;
-3,4891306266632E-7;
-2,90552296241882E-7;
-3,30034213545012E-7;
-4,37501571602654E-7;
-4,76607175399878E-7;
-3,01139266446182E-7;
1,18963133289236E-7;
6,44513832079939E-7;
1,0388509514683E-6;
1,11935132326631E-6;
8,77526188273093E-7;
4,7697234315842E-7;
1,31669600154801E-7;
-4,06694307503413E-8;
-7,86949622408944E-8;
-1,11805141961075E-7;
-2,31854595347011E-7;
-4,13126633143842E-7;
-5,45923089994688E-7;
-5,48949928261694E-7;
-4,56026638147229E-7;
-3,93803994581642E-7;
-4,62894711291122E-7;
-6,24175926616069E-7;
-6,96914870287122E-7;
-4,86909129545897E-7;
4,83721800452355E-8;
7,31231801728339E-7;
1,25720457851723E-6;
1,38999635698583E-6;
1,11456826905867E-6;
6,34025482558969E-7;
2,156992708802E-7;
7,23875502025064E-9;
-3,79461735344898E-8;
-7,88294475636261E-8;
-2,28272540110754E-7;
-4,55036025330165E-7;
-6,25352091591295E-7;
-6,39967908216242E-7;
-5,39002088669793E-7;
-4,7457188264432E-7;
-5,67595033087431E-7;
-7,7177278130012E-7;
-8,71817021640138E-7;
-6,3610914120319E-7;
-1,22244686948212E-8;
7,92520881063712E-7;
1,42130022371093E-6;
1,59624491411521E-6;
1,29696392391494E-6;
7,56630306605435E-7;
2,83356449198528E-7;
4,77381999209956E-8;
-2,75692021996747E-9;
-4,95456912541134E-8;
-2,2145433801994E-7;
-4,83084774676689E-7;
-6,82451298117209E-7;
-7,06680817213427E-7;
-6,00566106462482E-7;
-5,3534478140902E-7;
-6,4719553549707E-7;
-8,84500788864248E-7;
-1,00615152952653E-6;
-7,52505105013948E-7;
-6,35452483636824E-8;
8,31665432189582E-7;
1,53762199655981E-6;
1,74560722446301E-6;
1,43096451987357E-6;
8,48604638804156E-7;
3,36302924870782E-7;
8,14208489337933E-8;
2,72413730365126E-8;
-2,38057329542802E-8;
-2,12053385354866E-7;
-4,99145957330904E-7;
-7,20045851074504E-7;
-7,52091878532194E-7;
-6,43320212684009E-7;
-5,78494574416373E-7;
-7,04617602699405E-7;
-9,66386826867396E-7;
-1,1045538094705E-6;
-8,39719361307792E-7;
-1,06316239651919E-7;
8,51744321563904E-7;
1,61229267529064E-6;
1,84519653317253E-6;
1,52250726176005E-6;
9,13586371113887E-7;
3,76141490688566E-7;
1,08879398168703E-7;
5,24284894384171E-8;
-1,43373585608474E-9;
-2,0065130692529E-7;
-5,04961828005458E-7;
-7,40785491671724E-7;
-7,790213497133E-7;
-6,69708988200874E-7;
-6,06260954836138E-7;
-7,42633490732757E-7;
-1,02125034602931E-6;
-1,17141687126794E-6;
-9,01199720209027E-7;
-1,41268169587278E-7;
8,55608144013688E-7;
1,6510384384341E-6;
1,90168644816535E-6;
1,57717479444587E-6;
9,55010589764595E-7;
4,04402067122355E-7;
1,3069949308341E-7;
7,31921188754746E-8;
1,77631794712767E-8;
-1,87769773589636E-7;
-5,021425935494E-7;
-7,47132461030565E-7;
-7,90098499609338E-7;
-6,82018446329665E-7;
-6,20744232592818E-7;
-7,63838159734292E-7;
-1,05267343398642E-6;
-1,2108805056433E-6;
-9,40207257615986E-7;
-1,69120429323591E-7;
8,45888142244314E-7;
1,65918305246587E-6;
1,92128895800723E-6;
1,60017138706807E-6;
9,7609311904871E-7;
4,22534149743177E-7;
1,47453166860201E-7;
8,99205415966342E-8;
3,39925589401143E-8;
-1,7386766159998E-7;
-4,92163738604739E-7;
-7,41360614373694E-7;
-7,8775910524893E-7;
-6,82368035897019E-7;
-6,23892917898243E-7;
-7,70652752419412E-7;
-1,06399790149975E-6;
-1,22679804365322E-6;
-9,59790285603333E-7;
-1,90577413568747E-7;
8,24977565559479E-7;
1,64161900968454E-6;
1,90974072383352E-6;
1,59631744951487E-6;
9,79822319137946E-7;
4,31896160839909E-7;
1,59688878962274E-7;
1,02993258281733E-7;
4,74672812870824E-8;
-1,59343157867709E-7;
-4,76359359152399E-7;
-7,25545865523231E-7;
-7,74233298156801E-7;
-6,72704477575076E-7;
-6,17503384213074E-7;
-7,65306393255257E-7;
-1,05830880486888E-6;
-1,2227407507965E-6;
-9,62786455860633E-7;
-2,06324400841295E-7;
0,00933422909269543;
0,0226313326446335;
0,0163746095688041;
0,00943466621306285;
0,0121703607349259;
0,00702660108192193;
0,00563498506331521;
0,00458282283697508;
0,000840558500338212;
0,00103224783128857;
-0,00119089543530467;
-0,00199265423389978;
-0,00280788848769469;
-0,00455433612254538;
-0,00488792821846483;
-0,00585665055618794;
-0,00594225571080184;
-0,00618369031008878;
-0,00699452847768794;
-0,00792092055903873;
-0,00934812995263694;
-0,0102413418788784;
-0,0105166856789387;
-0,0101069977928577;
-0,00920671867771969;
-0,00842986753386147;
-0,0078302614827285;
-0,00745735184635349;
-0,00704798623862253;
-0,00641880681986215;
-0,00567588560790314;
-0,00495915841576526;
-0,00445380296059362;
-0,00409139767988105;
-0,00366440839841938;
-0,00302729357404669;
-0,00222923950460021;
-0,00157399659459997;
-0,001362005706954;
-0,00166546883503574;
-0,00222500972957531;
-0,00258558447439502;
-0,00240502400985957;
-0,00165571881529087;
-0,000623820791376036;
0,000317089214291893;
0,00096383793941449;
0,00137599280967408;
0,00176520532460752;
0,00227834671454536;
0,00287330641929129;
0,00337757328863121;
0,00366425641693333;
0,00378382504919049;
0,00392419086101355;
0,00423275221468677;
0,00465313694601553;
0,00492800744188334;
0,00478449884303923;
0,00416183024887103;
0,00329906364048481;
0,00260260239594726;
0,0023856966811878;
0,00267272941708791;
0,00321004333626772;
0,00366580102818363;
0,00385894182996062;
0,0038460706282771;
0,00381738325844587;
0,00390608773683046;
0,00407601220699201;
0,00417402318301358;
0,00408850222412739;
0,00386537160653301;
0,00367342362253394;
0,00364485887465518;
0,00372996551873035;
0,00370018828491461;
0,00331309109917717;
0,00251533008621246;
0,00152018524227633;
0,00068939895844523;
0,000301473460461518;
0,000377811716682026;
0,000692861278084086;
0,000951820390010075;
0,000993925800853972;
0,000869309566381129;
0,000746385873598531;
0,000742848166327998;
0,0008261881734123;
0,000860359535826614;
0,000746172385050265;
0,00052384626200908;
0,000342147098483676;
0,000317297436889272;
0,000404687570698453;
0,000401852940168503;
9,43069708516499E-5;
-0,000565402001121627;
-0,0107230456156348;
-0,0246897858324446;
-0,0187049070938746;
-0,0116211295376705;
-0,0139964632054575;
-0,00853555498167551;
-0,00701175558058782;
-0,00596889834432868;
-0,00223025715220682;
-0,00231734673140432;
8,94481668728553E-5;
0,00103412360408479;
0,0018641845538692;
0,00353211032977495;
0,00382346624933931;
0,00488728359553309;
0,00516575465023209;
0,00552051378793034;
0,00617758941045691;
0,006641557627137;
0,00746116925911121;
0,00787871892361812;
0,00802292509521192;
0,00784167041848715;
0,00735534639939175;
0,00695140182549532;
0,00656007729219002;
0,00626855331263021;
0,00594153374529778;
0,00548459509420596;
0,00497826246531925;
0,0044583275068258;
0,00403412405523042;
0,00366738053556292;
0,0032629292986579;
0,00276269851541;
0,00218152130807981;
0,00166967549070692;
0,00136551304356828;
0,0013055535397694;
0,00137194188191805;
0,00134907048470594;
0,0010782192540634;
0,000544632708361208;
-0,000115667855860578;
-0,000724260608675069;
-0,00118419511561741;
-0,00152233188712536;
-0,00184016300548927;
-0,00220799660364784;
-0,00260557732084962;
-0,00294966739354168;
-0,00317823573945913;
-0,00331564770054086;
-0,00345331149634916;
-0,00366358473608084;
-0,00391941009883863;
-0,00409458347364563;
-0,00405453111658095;
-0,00376858096486117;
-0,00335459859884714;
-0,00301445353456248;
-0,00290491002448692;
-0,00303944921506286;
-0,00329229884577539;
-0,00349762834351717;
-0,0035645176695628;
-0,00352153675075267;
-0,00346513607478246;
-0,00346344197487511;
-0,00349876087599416;
-0,00349353420255561;
-0,00339092243770025;
-0,00321456999663649;
-0,00305151019448105;
-0,00297046979116391;
-0,00294649505158797;
-0,00286166002744254;
-0,00258999813250238;
-0,00210327862500129;
-0,00151246135601219;
-0,00100704225259048;
-0,000733986381896897;
-0,000705704175863124;
-0,000804177032846401;
-0,000873928737837593;
-0,000829695388108444;
-0,000698016074338599;
-0,000568781180005722;
-0,000505279632981099;
-0,000490511253575034;
-0,000451567281097961;
-0,000334926936083571;
-0,000162175962675967;
-1,39629435032354E-5;
4,62490651757123E-5;
4,23736239859023E-5;
8,49028907855989E-5;
0,000291701893657435;
0,000689554830322751;
0,0011757429369337;
0,00157463673046583;
0,0017503337272684;
0,00169209573882048;
0,00151032678875839;
0,00135008184328826;
0,0012910980381442;
0,00130930999751663;
0,00132192523429874;
0,00127087919888725;
0,00117253645170979;
0,00109500084074905;
0,00108833542312978;
0,00113302934317796;
0,00115493906701489;
0,00109586739550019;
0,000978412662099201;
0,000905112909388833;
0,000985181534341245;
0,00124360946033911;
0,00158583033819236;
0,00185009331710552;
0,00191141756463452;
0,00176028819786901;
0,00149878931632378;
0,00126079349720025;
0,00111988716970384;
0,00105403976004505;
0,000987199074086137;
0,000866102077998996;
0,000705924733613824;
0,000569340821674397;
0,000502371076910001;
0,000487098370314865;
0,000455469015642943;
0,000354106648270298;
0,000203756581166878;
9,8399421320177E-5;
0,000138022624341105;
0,000345360641966253;
0,000633651109298595;
0,000854714833755235;
0,000894139329647922;
0,000743198998006547;
0,000495180694032045;
0,000272323937176396;
0,000141685566678007;
8,29564323033241E-5;
2,65391024076853E-5;
-7,63141902833412E-5;
-0,000211900710009819;
-0,000323239013750331;
-0,000368579402663587;
-0,000364450652063078;
-0,000373014888752507;
-0,000443017314383631;
-0,000555723475795842;
-0,000625815245447903;
-0,00056259340613605;
-0,000345642376002783;
-5,40253096641725E-5;
0,000177503013647719;
0,000244960653390777;
0,000140349988483348;
-5,17979401707379E-5;
-0,000220773376612252;
-0,000305961966269616;
-0,000325931755113485;
-0,000343854319625469;
-0,000403968005975102;
-0,000493966866149082;
-0,000562412620272827;
-0,000571677731257707;
-0,000536824251746647;
-0,000514112053696423;
-0,000547628068008322;
-0,000620508922831349;
-0,000655829872016747;
-0,000571877669177969;
-0,000350365827836285;
-6,2659907033959E-5;
0,000169779154918113;
0,000253309762401344;
0,000180764816937477;
2,82327028145687E-5;
-0,000104714585012931;
-0,000163613139514372;
-0,000165184813436474;
-0,00016619017483107;
-0,000206337240781303;
-0,000274553086522726;
-0,000324669550730692;
-0,000322940341821966;
-0,000282870443446433;
-0,00025485794615155;
-0,000278349903726959;
-0,000338193335794938;
-0,000365503419864401;
-0,00028717268470573;
-8,68656060503231E-5;
0,000171618075740583;
0,000379784042518013;
0,000454074265907827;
0,000388188016613845;
0,000250110689170075;
0,000128714617310202;
7,25896222894653E-5;
6,68593545314484E-5;
6,10031808927251E-5;
1,97259945711506E-5;
-4,70500997775083E-5;
-9,81981965391418E-5;
-0,00010367420952048;
-7,54538114978111E-5;
-5,82741851065492E-5;
-8,71081690295434E-5;
-0,000148438014292593;
-0,000181091774713894;
-0,000120210966737987;
4,86802152174504E-5;
0,000269042900295009;
0,000444804427212637;
0,0005020479831929;
0,00043527679648552;
0,000304696120552412;
0,00018892247894964;
0,000130911707384214;
0,000117531593954664;
0,000104196596376762;
5,97939553570954E-5;
-6,88526071469499E-6;
-5,955398884316E-5;
-7,17272975057579E-5;
-5,39542218672987E-5;
-4,56149698656836E-5;
-7,74619504837142E-5;
-0,000137573260655805;
-0,000172148855860964;
-0,000124202902710044;
1,89453562743189E-5;
0,000207622654056604;
0,000357511238821585;
0,000403798899841195;
0,00034170554182359;
0,000224018447465042;
0,000119599985323866;
6,60386836621275E-5;
5,18234082228046E-5;
3,79527945060906E-5;
-2,76392790241465E-6;
-6,26379809844373E-5;
-0,000109985398746876;
-0,000121708872852638;
-0,000107034781715591;
-0,000100313215428467;
-0,000128342265606746;
-0,000180730529812146;
-0,000210647101961406;
-0,000168538024665053;
-4,34242766731892E-5;
0,000121471248550515;
0,000252874519416875;
0,000294515882124666;
0,000242268637650732;
0,000141933327396295;
5,32001496203029E-5;
8,61237851637592E-6;
-1,82484117343263E-6;
-1,18808629080333E-5;
-4,50761601786476E-5;
-9,47609633309662E-5;
-0,000133566418366915;
-0,000141567174799151;
-0,000126750087564268;
-0,000118758362150782;
-0,000140692564883506;
-0,000183592094424722;
-0,000207135076209665;
-0,000168701689824941;
-5,8891339554831E-5;
8,51028703582525E-5;
0,000200315881453942;
0,000238446823436237;
0,00019597976054315;
0,000112209315630175;
3,82908403442395E-5;
2,08116444469513E-6;
-4,99261170126995E-6;
-1,18236070172771E-5;
-3,85117338188594E-5;
-7,93650324784663E-5;
-0,000111014122513931;
-0,000116468143677747;
-0,000102551784300937;
-9,45305504408409E-5;
-0,000112067142411943;
-0,000147519725269832;
-0,00016658943963143;
-0,00013306817422072;
-3,90032427305642E-5;
8,40066371162689E-5;
0,000182544845482347;
0,000215687107810204;
0,000180486552428577;
0,000110230347910439;
4,81966654998306E-5;
1,79237407452278E-5;
1,2160105166222E-5;
6,51908859199867E-6;
-1,59389686832611E-5;
-5,04003796098915E-5;
-7,71761064155023E-5;
-8,19720885106018E-5;
-7,05363867490873E-5;
-6,40998856383512E-5;
-7,9158880996114E-5;
-0,000109282162621369;
-0,000125705181631858;
-9,81073236059931E-5;
-1,98598289288281E-5;
8,2581378092716E-5;
0,00016456746349979;
0,000191942754513832;
0,000162280784960863;
0,000103359639052468;
5,12385583013279E-5;
2,55010209815547E-5;
2,0107136456414E-5;
1,47955464484708E-5;
-4,48297021260703E-6;
-3,37197968711361E-5;
-5,65919686973061E-5;
-6,12703791174256E-5;
-5,25196277887097E-5;
-4,78872244791805E-5;
-6,09814833462636E-5;
-8,64789984319094E-5;
-0,000100665634733998;
-7,8589619635537E-5;
-1,48284159539331E-5;
6,88475903856659E-5;
0,000135772831157181;
0,000157949769037955;
0,000133420845094204;
8,49487583092617E-5;
4,20260066734622E-5;
2,06398286475367E-5;
1,58493507294611E-5;
1,11371095673272E-5;
-4,92564395088906E-6;
-2,90645014631408E-5;
-4,80127188605584E-5;
-5,21781933191614E-5;
-4,54358408027592E-5;
-4,19983126774325E-5;
-5,28616532173711E-5;
-7,37088313173743E-5;
-8,53986473751702E-5;
-6,78370312738102E-5;
-1,66922722918292E-5;
5,04999794597547E-5;
0,000104285459696878;
0,000122225394561513;
0,000102782217486473;
6,41900443742875E-5;
3,00164122421656E-5;
1,30052047354225E-5;
9,20530396918259E-6;
5,4707634022944E-6;
-7,26933100806352E-6;
-2,6403441743411E-5;
-4,14160928867665E-5;
-4,47276633846581E-5;
-3,94133248702803E-5;
-3,66892788347313E-5;
-4,52061568234654E-5;
-6,15520960026583E-5;
-7,06913621747054E-5;
-5,68879867145823E-5;
-1,67873232504896E-5;
3,58726178475102E-5;
7,8100144609803E-5;
9,24351266205794E-5;
7,77150734345329E-5;
4,81204902335976E-5;
2,19186087543523E-5;
8,95379977466942E-6;
6,16036125093979E-6;
3,40487823796126E-6;
-6,27812534661659E-6;
-2,08691852300057E-5;
-3,23076187027016E-5;
-3,4807956263605E-5;
-3,07312834228119E-5;
-2,86227350921364E-5;
-3,50435890453117E-5;
-4,73881592306846E-5;
-5,42744748894115E-5;
-4,38426289369639E-5;
-1,36050220742363E-5;
2,60778289374211E-5;
5,79573980609115E-5;
6,89955296756197E-5;
5,83627448289833E-5;
3,66429804593963E-5;
1,74032957102235E-5;
7,918687977663E-6;
5,90901321346105E-6;
3,90959073399153E-6;
-3,18105219917865E-6;
-1,38674264998066E-5;
-2,22598190258257E-5;
-2,41581618214067E-5;
-2,12914872107944E-5;
-1,9844885822962E-5;
-2,45348368997827E-5;
-3,34673295540068E-5;
-3,84833599608332E-5;
-3,11398334152375E-5;
-9,71196315926747E-6;
1,84162991317772E-5;
4,10540603980137E-5;
4,90550783111551E-5;
4,18827640625783E-5;
2,69589106405923E-5;
1,37204195265023E-5;
7,18597077441338E-6;
5,76553009997284E-6;
4,33630102319574E-6;
-5,68678578758111E-7;
-7,91373684908871E-6;
-1,37116031877035E-5;
-1,51504526771475E-5;
-1,34056001644127E-5;
-1,25970554227665E-5;
-1,58283256251098E-5;
-2,1828111357588E-5;
-2,52536306824287E-5;
-2,06453131106366E-5;
-6,94350093089209E-6;
1,106521163895E-5;
2,56001366623088E-5;
3,09066488122539E-5;
2,67029918770769E-5;
1,76579255381803E-5;
9,61473630103044E-6;
5,63007054660728E-6;
4,71370052717606E-6;
3,77686765314972E-6;
7,7107061028991E-7;
-3,66776040251228E-6;
-7,20279630885354E-6;
-8,22564004352396E-6;
-7,43175767936287E-6;
-7,1531020270206E-6;
-9,09778608053862E-6;
-1,25339109455835E-5;
-1,45538971268463E-5;
-1,22760778554351E-5;
-5,21478399767699E-6;
4,08555346375714E-6;
1,16486173983309E-5;
1,4643535190326E-5;
1,30078761688242E-5;
9,03968341354532E-6;
5,48971617244593E-6;
3,72724683388895E-6;
3,27753055279835E-6;
2,79871561050694E-6;
1,45940737873196E-6;
-4,48108815032919E-7;
-2,00258173805139E-6;
-2,62690383617512E-6;
-2,60544740183211E-6;
-2,73979255390574E-6;
-3,54488550267481E-6;
-4,75059674542707E-6;
-5,53029085396993E-6;
-5,20332827303989E-6;
-3,77338508027746E-6;
-1,87242345368459E-6;
-2,34448884428351E-7;
7,99662369673281E-7;
1,35409607566618E-6;
1,71066826887826E-6;
1,99194148609551E-6;
2,13424759828353E-6;
2,10039124826235E-6;
2,02991565828585E-6;
2,12250942237931E-6;
2,37889181982831E-6;
2,52192447455691E-6;
2,25654881606791E-6;
1,6461156810879E-6;
1,18167974536151E-6;
1,35504800430985E-6;
2,04638083653177E-6;
2,32811242983493E-6;
1,02726583367854E-6;
-2,2711704030042E-6;
-6,59025385669416E-6;
-9,93896239432718E-6;
-1,05671864094031E-5;
-8,19409025950783E-6;
-4,2280682204848E-6;
-7,47973447217511E-7;
9,83362895099374E-7;
1,29479445969534E-6;
1,56363845668929E-6;
2,85009200815821E-6;
4,9111667046326E-6;
6,47053450830772E-6;
6,50683717151784E-6;
5,37309404835131E-6;
4,63533332684643E-6;
5,6215374388941E-6;
7,8876523532731E-6;
9,0508341766338E-6;
6,40213437266752E-6;
-8,13525636558158E-7;
-1,02876658681984E-5;
-1,77766759939662E-5;
-1,98037146919287E-5;
-1,59586570405523E-5;
-9,04278075695597E-6;
-2,94725889717793E-6;
7,89568547876322E-8;
6,6560323625173E-7;
1,20591890144881E-6;
3,46535624487763E-6;
7,00078204956364E-6;
9,71785530113883E-6;
1,00015015114095E-5;
8,44161092803664E-6;
7,48139749588569E-6;
9,13009231200317E-6;
1,26791352748791E-5;
1,45616448876392E-5;
1,08208025522353E-5;
4,26036776758009E-7;
-1,32340967230507E-5;
-2,40914902526195E-5;
-2,7272529828624E-5;
-2,22626554660299E-5;
-1,29870457018781E-5;
-4,79731547617357E-6;
-7,35965292390913E-7;
6,87182765463817E-8;
8,2545892051506E-7;
3,86475884919391E-6;
8,58266831546027E-6;
1,22302973080202E-5;
1,27184139133773E-5;
1,08261338167685E-5;
9,69557685134009E-6;
1,18776475213095E-5;
1,64530374216522E-5;
1,89149959720092E-5;
1,43180706797456E-5;
1,41426181112198E-6;
-1,55539036064066E-5;
-2,90785946354468E-5;
-3,31859029769903E-5;
-2,72792281987726E-5;
-1,61662932332593E-5;
-6,34349575491957E-6;
-1,47419818864065E-6;
-4,97511737312158E-7;
4,31199677282619E-7;
4,0819349792301E-6;
9,72515207869695E-6;
1,41037114775869E-5;
1,47611767122988E-5;
1,26232908062537E-5;
1,13717269083529E-5;
1,39743666219659E-5;
1,93491938183819E-5;
2,2267580366306E-5;
1,70267969008486E-5;
2,21323866368802E-6;
-1,72781785174415E-5;
-3,28428207763758E-5;
-3,76706377735072E-5;
-3,1103003265093E-5;
-1,86154397162586E-5;
-7,56833824314923E-6;
-2,09235030200168E-6;
-9,84309214433236E-7;
7,68346750082352E-8;
4,18912059379382E-6;
1,05287087251951E-5;
1,5460046233738E-5;
1,62543686630179E-5;
1,39462863621835E-5;
1,26158448513729E-5;
1,55374772479533E-5;
2,15090125984335E-5;
2,47729004763408E-5;
1,90738179197907E-5;
2,87841615717539E-6;
-1,84441123638601E-5;
-3,54952572798009E-5;
-4,08621138966922E-5;
-3,38417692979727E-5;
-2,03881794993188E-5;
-8,47819939150897E-6;
-2,57441969648204E-6;
-1,37265933497048E-6;
-2,15843302354373E-7;
4,22405858319666E-6;
1,10564681012189E-5;
1,63815834392832E-5;
1,72816990806744E-5;
1,48671512093669E-5;
1,34924182260877E-5;
1,66415926591886E-5;
2,3029690467243E-5;
2,65394263427142E-5;
2,05422904362232E-5;
3,42540662842109E-6;
-1,91236540072815E-5;
-3,71775779849119E-5;
-4,2924684274079E-5;
-3,56333738124697E-5;
-2,15706878953204E-5;
-9,11382841596902E-6;
-2,9391880632821E-6;
-1,67753838169122E-6;
-4,58135139204295E-7;
4,19162844408926E-6;
1,13384522983295E-5;
1,69176786068599E-5;
1,78952244490662E-5;
1,54283399353267E-5;
1,40382175635568E-5;
1,73344442690789E-5;
2,39816563815005E-5;
2,76496784165885E-5;
2,14924589240275E-5;
3,85250191289394E-6;
-1,9399287150163E-5;
-3,80363467648381E-5;
-4,40249184720895E-5;
-3,6618310233723E-5;
-2,22537867402638E-5;
-9,52222590496383E-6;
-3,21180705931859E-6;
-1,91925437077118E-6;
-6,6565774968597E-7;
4,09255998763298E-6;
1,14000763191279E-5;
1,71129688898048E-5;
1,81432350027984E-5;
1,56702626743074E-5;
1,42893775290008E-5;
1,76633625336911E-5;
2,44343207751037E-5;
2,81852048083508E-5;
2,1985933092201E-5;
4,16435261929317E-6;
-1,93409304446819E-5;
-3,82006112383692E-5;
-4,43100733168095E-5;
-3,69192567666291E-5;
-2,25136946979142E-5;
-9,73860009838016E-6;
-3,40689720084257E-6;
-2,10766511439478E-6;
-8,43682046013555E-7;
3,93693646252434E-6;
1,12744736653918E-5;
1,70185409605828E-5;
1,80803040560031E-5;
1,56402649081683E-5;
1,42893090076638E-5;
1,76820917669064E-5;
2,4461799421189E-5;
2,82312766467268E-5;
2,2089457906691E-5;
4,37493398381458E-6;
-1,90037005031139E-5;
-3,77803951092363E-5;
-4,39073761005454E-5;
-3,66412032685367E-5;
-2,24129814023475E-5;
-9,78812124340398E-6;
-3,53102670176745E-6;
-2,24529352176334E-6;
-9,90863534460037E-7;
3,73987794979318E-6;
1,0997621056663E-5;
1,66865451776988E-5;
1,77614714571634E-5;
1,53864272012502E-5;
1,4082152461567E-5;
1,74439364940617E-5;
2,41357713639898E-5;
2,78694944308717E-5;
2,18673508930241E-5;
4,49987872658368E-6;
-1,84356300500357E-5;
-3,68744264614544E-5;
-4,29317578374778E-5;
-3,58791960183571E-5;
-2,20083228368816E-5;
-9,69363185149021E-6;
-3,59034757311103E-6;
-2,33487637021798E-6;
-1,10665326378699E-6;
3,5142771974137E-6;
1,06012368044135E-5;
1,61632816220119E-5;
1,72355237015533E-5;
1,49510649321727E-5;
1,37065150552477E-5;
1,69957351122794E-5;
2,35197090919919E-5;
2,71722952156751E-5;
2,13762720316728E-5;
4,55151524889163E-6;
-1,7682352775666E-5;
-3,55745545440339E-5;
-4,14899718143341E-5;
-3,47221130301858E-5;
-2,13539223147866E-5;
-9,47873688860969E-6;
-3,59336839388995E-6;
-2,38183331656852E-6;
-1,19348029055631E-6;
3,26891683264279E-6;
1,01111954513814E-5;
1,54878926829418E-5;
1,65439500876351E-5;
1,43699234929324E-5;
1,31948992523684E-5;
1,6377542888548E-5;
2,26688149177445E-5;
2,62031086163175E-5;
2,06655578314685E-5;
4,53931780495888E-6;
-1,67865867124232E-5;
-3,39651296142664E-5;
-3,96798136415655E-5;
-3,32516869564104E-5;
-2,05002959906306E-5;
-9,16638206693718E-6;
-3,54938378585153E-6;
-2,39257842945946E-6;
-1,25496828457942E-6;
3,01035572458516E-6;
9,54953074413886E-6;
1,46944675146876E-5;
1,57231016032336E-5;
1,3674355624483E-5;
1,25758971476534E-5;
1,56248525670682E-5;
2,16322875295343E-5;
2,50186549609289E-5;
1,97794603948843E-5;
4,47199055430712E-6;
-1,5786230134704E-5;
-3,21212593248754E-5;
-3,75884439086358E-5;
-3,15407849597301E-5;
-1,94924879366026E-5;
-8,77700481036745E-6;
-3,46661959171168E-6;
-2,37272108875008E-6;
-1,2941807500134E-6;
2,74465792757996E-6;
8,93615552292409E-6;
1,38137213895886E-5;
1,48057828110923E-5;
1,28928039042419E-5;
1,18755700513732E-5;
1,47699294213525E-5;
2,04546370821789E-5;
2,36701907674694E-5;
1,87582416890165E-5;
4,35831265341626E-6;
-1,47138244382732E-5;
-3,01085209168331E-5;
-3,52922293507487E-5;
-2,96532376473615E-5;
-1,83697996609491E-5;
-8,32821228771972E-6;
-3,35191687405212E-6;
-2,32680441903935E-6;
-1,31342412703438E-6;
2,47757321729521E-6;
8,28903817968304E-6;
1,2873173030393E-5;
1,38213912745763E-5;
1,20508500162669E-5;
1,11174245156157E-5;
1,38417634705139E-5;
1,91756549095254E-5;
2,22034736253339E-5;
1,76380276689086E-5;
4,20675010585512E-6;
-1,35972418676202E-5;
-2,79838848019863E-5;
-3,28577371560075E-5;
-2,76447584066294E-5;
-1,71665601682614E-5;
-7,8353960236383E-6;
-3,2112902330879E-6;
-2,25886240296006E-6;
-1,31479082987028E-6;
2,21403884180144E-6;
7,6238009337389E-6;
1,18968016969885E-5;
1,27955657858662E-5;
1,11708340041715E-5;
1,03220192071867E-5;
1,28657128705102E-5;
1,78301384612815E-5;
2,06585388166126E-5;
1,64505028968276E-5;
4,02493965299321E-6;
-1,24604710784024E-5;
-2,5796708501697E-5;
-3,03427715692843E-5;
-2,55638513400067E-5;
-1,59128206578518E-5;
-7,3122508299474E-6;
-3,05033041316014E-6;
-2,1727770222471E-6;
-1,30048998960636E-6;
1,95793757725968E-6;
6,95358236467904E-6;
1,09050025105198E-5;
1,17501865797598E-5;
1,0271828409042E-5;
9,5069253523551E-6;
1,18635340739818E-5;
1,6448032259389E-5;
1,90699002063848E-5;
1,52230482259899E-5;
3,81959733658812E-6;
-1,13240038756861E-5;
-2,35893514490639E-5;
-2,77970521098041E-5;
-2,34523466618933E-5;
-1,46346531376778E-5;
-6,77086942364923E-6;
-2,87420588476522E-6;
-2,0722528817273E-6;
-1,27277978321198E-6;
1,71223529425413E-6;
6,28929257742496E-6;
9,91492715461321E-6;
1,07037173948291E-5;
9,36996107585737E-6;
8,68704855284156E-6;
1,08537448311026E-5;
1,50548749925933E-5;
1,74670457881868E-5;
1,39791479420686E-5;
3,59668412922292E-6;
-1,02049956448297E-5;
-2,13975777003384E-5;
-2,526267032305E-5;
-2,13457558224044E-5;
-1,33542999818905E-5;
-6,22170333677755E-6;
-2,68752403243961E-6;
-1,96065592101789E-6;
-1,23379630732041E-6;
1,47922165717793E-6;
5,63994141496497E-6;
8,94088534120399E-6;
9,67162925974891E-6;
8,47878440291054E-6;
7,87495493897452E-6;
9,85199483483976E-6;
1,36722666399594E-5;
1,58749447947089E-5;
1,27387902061672E-5;
3,36154447870926E-6;
-9,11745515782249E-6;
-1,92510227436439E-5;
-2,27746442146222E-5;
-1,92736958986746E-5;
-1,20903970238011E-5;
-5,67361239938241E-6;
-2,49429177275406E-6;
-1,84096444580295E-6;
-1,18548953944076E-6;
1,26063677430323E-6;
5,01287101062286E-6;
7,99465028098151E-6;
8,66669833055765E-6;
7,60953275642202E-6;
7,08110779204066E-6;
8,87133145496584E-6;
1,23182089654539E-5;
1,4314434470378E-5;
1,15187611124653E-5;
3,11893703549419E-6;
-8,07255807039784E-6;
-1,71737632237125E-5;
-2,03615645589135E-5;
-1,72604388760136E-5;
-1,08582971741545E-5;
-5,13399450901303E-6;
-2,29796934945713E-6;
-1,71580020722555E-6;
-1,12964029769663E-6;
1,05770911518458E-6;
4,41389237546016E-6;
7,08566817978381E-6;
7,69922828554071E-6;
6,77130612163292E-6;
6,31402106879774E-6;
7,92240046221379E-6;
1,10074015365765E-5;
1,28025567658242E-5;
1,03328836119817E-5;
2,87302250914612E-6;
-7,07898011144821E-6;
-1,51849083837456E-5;
-1,80462652901042E-5;
-1,53254587919948E-5;
-9,6704191576633E-6;
-4,60896513855956E-6;
-2,10154335463527E-6;
-1,58748393470613E-6;
-1,06789891120155E-6;
8,71197069605057E-7;
3,84742138762793E-6;
6,22127223742754E-6;
6,77728050968115E-6;
5,9712591745378E-6;
5,58043098807064E-6;
7,01366477485061E-6;
9,75154469281303E-6;
1,13529077944338E-5;
9,19228495940873E-6;
2,62738167275762E-6;
-6,14319997658874E-6;
-1,32991491454071E-5;
-1,58464457084228E-5;
-1,3483947069434E-5;
-8,53655875668561E-6;
-4,103475873283E-6;
-1,90756361490144E-6;
-1,45806275250889E-6;
-1,00178600745967E-6;
7,01446567605754E-7;
3,31663670238219E-6;
5,40692138419504E-6;
5,90691787112854E-6;
5,21481036993983E-6;
4,88548276244576E-6;
6,15162501025156E-6;
8,55965174949739E-6;
9,97599867854201E-6;
8,10566217025436E-6;
2,38505861681314E-6;
-5,26976126722247E-6;
-1,15272720383258E-5;
-1,37752465203569E-5;
-1,17472862674674E-5;
-7,46416793955141E-6;
-3,62143241446476E-6;
-1,71817776898793E-6;
-1,32930524150948E-6;
-9,32681759160582E-7;
5,48459871219232E-7;
2,82365221856341E-6;
4,64643522162598E-6;
5,09245028827505E-6;
4,50585518336487E-6;
4,23292413482589E-6;
5,34106289172329E-6;
7,43836804753341E-6;
8,67961549492735E-6;
7,07957259196717E-6;
2,14860899629714E-6;
-4,46151600042453E-6;
-9,87661667446473E-6;
-1,18417899699236E-5;
-1,01234901583373E-5;
-6,45861043917068E-6;
-3,16578928111215E-6;
-1,53514578628563E-6;
-1,20271834340295E-6;
-8,61816813886655E-7;
4,11966129340771E-7;
2,36965635925682E-6;
3,94220930180393E-6;
4,33666717720057E-6;
3,8469703555309E-6;
3,62529169484131E-6;
4,58525065805967E-6;
6,39226491614998E-6;
7,4691564278888E-6;
6,11867740305445E-6;
1,92014405939416E-6;
0,00932971419381206;
0,0226213782832923;
0,0163626855658071;
0,00942447853747362;
0,0121638683553711;
0,0070234286634643;
0,0056334572486753;
0,00458163048760973;
0,000839709807345363;
0,00103268384267424;
-0,00118848443598391;
-0,00198865724240069;
-0,00280349589345389;
-0,00455044173727301;
-0,00488426093963856;
-0,0058520145583902;
-0,00593579317146936;
-0,00617614039346407;
-0,00698835068053472;
-0,00791900218156708;
-0,00935193292572279;
-0,0102498425577464;
-0,0105269070248525;
-0,0101157554297343;
-0,00921232526197655;
-0,0084326382558745;
-0,00783162764911993;
-0,0074584323805856;
-0,00704877231063382;
-0,00641849077282728;
-0,00567387402735321;
-0,00495578108571335;
-0,00445007548591514;
-0,00408808327619058;
-0,00366127607516251;
-0,00302332284271778;
-0,00222369745748754;
-0,00156751162703365;
-0,00135667338653921;
-0,00166375196932449;
-0,00222816129884403;
-0,00259274493879415;
-0,00241367194846005;
-0,00166315254762231;
-0,000628604739427536;
0,000314694793279058;
0,000962626754356251;
0,00137502136177709;
0,00176448286062863;
0,00227855755513724;
0,00287495432530434;
0,00338038283200469;
0,00366737300603704;
0,00378660583604141;
0,00392682992117837;
0,00423610851625296;
0,00465782824837734;
0,00493350717428378;
0,00478904639537142;
0,00416335376498854;
0,00329650314835965;
0,0025966676021693;
0,00237849111756801;
0,00266651160854342;
0,00320601733855798;
0,00366375633060641;
0,0038578779492757;
0,00384520456222894;
0,00381672446903004;
0,00390620740592531;
0,00407733176416754;
0,00417631668895381;
0,00409106223854822;
0,00386766534687391;
0,00367561146332845;
0,003647652155722;
0,00373387667798501;
0,00370478361309747;
0,00331691585429053;
0,00251666965836068;
0,00151815657308527;
0,000684576073845336;
0,000295579650280712;
0,000372701858098087;
0,000689528180976383;
0,000950098208396229;
0,000993000787973033;
0,000868544388409545;
0,000745790031214724;
0,00074288986615792;
0,000827213822845731;
0,000862187885212687;
0,00074822940728778;
0,000525699022436172;
0,000343925447895154;
0,000319578847944116;
0,000407888901236303;
0,000405624488996493;
9,74710951689438E-5;
-0,000564236023728085;
-0,0107245999271418;
-0,0246936082457712;
-0,018709617528402;
-0,0116252378538682;
-0,0139991678256918;
-0,00853698200596206;
-0,00701255069869443;
-0,00596956774802558;
-0,00223079145443054;
-0,00231737071007671;
9,02130912926789E-5;
0,00103553619885441;
0,00186579077060043;
0,00353356708425507;
0,00382487596917329;
0,00488910333828333;
0,00516831522321797;
0,00552354086631189;
0,00618015436530785;
0,00664256103278287;
0,00746003419876225;
0,00787578912189529;
0,00801927340259124;
0,00783846008331911;
0,00735320727522659;
0,0069502428511252;
0,006559402756693;
0,00626797410393035;
0,0059410590071441;
0,00548451676684971;
0,00497879829590625;
0,00445937178229932;
0,00403532972068437;
0,0036684846882547;
0,00326400993540447;
0,00276410527765021;
0,00218350816786871;
0,00167203517928336;
0,00136753883810658;
0,00130640583126992;
0,00137117376527415;
0,0013469300087159;
0,00107550661394917;
0,000542220671559194;
-0,000117302356338959;
-0,00072517805389396;
-0,00118475854739302;
-0,00152282680811489;
-0,00184058062379702;
-0,00220811893739183;
-0,00260524072540325;
-0,00294894634674828;
-0,00317738272285965;
-0,00331485469008359;
-0,00345252206903743;
-0,00366254423413196;
-0,00391793256337529;
-0,00409281705526866;
-0,00405298653134776;
-0,00376786810417687;
-0,00335504895524009;
-0,00301590262913445;
-0,00290679742307475;
-0,00304115795171491;
-0,00329348695916757;
-0,003498329918225;
-0,00356497949579622;
-0,00352195349869362;
-0,00346549939122921;
-0,00346359896614152;
-0,0034985955876373;
-0,00349309392020647;
-0,00339037683938282;
-0,00321404890167753;
-0,00305097604897694;
-0,00296975114420307;
-0,0029454655936757;
-0,00286041629449459;
-0,00258887934664908;
-0,00210269347007322;
-0,00151263978850292;
-0,00100789200926946;
-0,000735155776791304;
-0,000706799312831827;
-0,000804973954132895;
-0,000874439020093749;
-0,000830064997555248;
-0,000698360862786589;
-0,000569093299361243;
-0,000505462912481618;
-0,0004904913778154;
-0,000451368122988869;
-0,000334646418577168;
-0,000161889994542793;
-1,36503039647736E-5;
4,66876841273862E-5;
4,30127422160259E-5;
8,56905568053289E-5;
0,000292447381583805;
0,000690023895059786;
0,00117579407894136;
0,00157430055531959;
0,00174978215771695;
0,00169153022556114;
0,00150986920171245;
0,0013497395246034;
0,00129081146756106;
0,00130903095088393;
0,00132166099697684;
0,00127067704101918;
0,00117243472181131;
0,00109499556888954;
0,00108839015437134;
0,00113311439670039;
0,00115506168593824;
0,00109606504987542;
0,000978715412662867;
0,000905506860866267;
0,000985603051220136;
0,00124397380381938;
0,00158607225209301;
0,00185019148184572;
0,00191139100558379;
0,0017601743453108;
0,00149862274127386;
0,00126059718765963;
0,00111967476549489;
0,0010538203076467;
0,000986979268370496;
0,000865887537852362;
0,000705723099459829;
0,000569164809018101;
0,000502236191937295;
0,000487014062721408;
0,000455430732239699;
0,000354099533863312;
0,000203773010263993;
9,84575375006191E-5;
0,000138166133867212;
0,000345631284667051;
0,000634048537913061;
0,000855174705616426;
0,000894552479137866;
0,000743465000476828;
0,000495260466156463;
0,000272253142815045;
0,000141538826027564;
8,27905680748169E-5;
2,63601981564201E-5;
-7,65354928977104E-5;
-0,000212182626561206;
-0,000323555085740952;
-0,000368870871402805;
-0,000364675443685182;
-0,000373187364940847;
-0,000443195930336627;
-0,000555947324503748;
-0,000626039649368604;
-0,000562685402845851;
-0,000345454857124255;
-5,35041385705401E-5;
0,000178258552567925;
0,000245735736744445;
0,000140930229674166;
-5,15127855823301E-5;
-0,00022073763800427;
-0,000306051118886801;
-0,000326049836308986;
-0,000343995871536668;
-0,000404191267643357;
-0,000494311475474085;
-0,000562841039060347;
-0,000572095860983255;
-0,000537163317068169;
-0,000514394413771095;
-0,000547947846184494;
-0,000620931020651453;
-0,0006562880659493;
-0,000572166179318742;
-0,000350251367472486;
-6,20433667911892E-5;
0,000170770804279864;
0,000254376431509754;
0,000181599815766447;
2,86859660452348E-5;
-0,000104589755658952;
-0,000163652311179793;
-0,000165260680115883;
-0,000166297896074384;
-0,000206558421874783;
-0,000274944767622436;
-0,000325185496948463;
-0,000323458250715261;
-0,000283300182698309;
-0,000255228245043336;
-0,000278783394200662;
-0,00033877561927721;
-0,000366151216220162;
-0,000287622200380348;
-8,68146987816287E-5;
0,000172304864738676;
0,000380958538806878;
0,00045536941321067;
0,000389224284593211;
0,000250698411291939;
0,000128912625790837;
7,25933206094855E-5;
6,6820415264159E-5;
6,09258335890275E-5;
1,95102286699903E-5;
-4,74751044300612E-5;
-9,87796332389708E-5;
-0,000104267955412396;
-7,59531577717478E-5;
-5,8712773076112E-5;
-8,76307379438805E-5;
-0,000149146285035225;
-0,000181889415628784;
-0,000120789413017699;
4,86764700909752E-5;
0,000269777917226348;
0,000446114549792109;
0,000503515478461886;
0,000436466638027738;
0,000305388167928802;
0,000189179268616879;
0,000130951682813803;
0,000117524599204855;
0,000104146271621085;
5,9586301623771E-5;
-7,33161384862223E-6;
-6,01815331635557E-5;
-7,23757438071531E-5;
-5,4504526989639E-5;
-4,61044009471209E-5;
-7,80516742003153E-5;
-0,000138377051510437;
-0,000173060868488708;
-0,000124881530885874;
1,88952326083031E-5;
0,000208386794984951;
0,000358915516307568;
0,000405389264442452;
0,00034300679874448;
0,000224788070468419;
0,000119902628778588;
6,61088655141477E-5;
5,18436995045454E-5;
3,79262708475647E-5;
-2,96135144303723E-6;
-6,30953667912455E-5;
-0,000110642166817299;
-0,0001223935392636;
-0,000107619700930436;
-0,000100838146010957;
-0,000128979809810345;
-0,00018160293419352;
-0,000211642106598936;
-0,000169291283856937;
-4,35131433781097E-5;
0,000122248132243101;
0,0002543368935974;
0,00029618592687106;
0,000243644397520729;
0,000142756989242006;
5,35371373734877E-5;
8,70722036865049E-6;
-1,78158862776631E-6;
-1,18866556140935E-5;
-4,52617554266994E-5;
-9,52206102158753E-5;
-0,000134237872314447;
-0,000142272076505026;
-0,000127355437572037;
-0,000119305428671421;
-0,00014136104004752;
-0,000184509575462013;
-0,000208185574975328;
-0,000169507074760197;
-5,90119581668175E-5;
8,58786345549408E-5;
0,000201805348607852;
0,000240159245956334;
0,000197398037831588;
0,0001130665140011;
3,86520150923665E-5;
2,19563750158332E-6;
-4,93037746497805E-6;
-1,1811567094535E-5;
-3,86843600367953E-5;
-7,98195812123131E-5;
-0,00011168789288514;
-0,000117179614902737;
-0,000103165397097822;
-9,50882410348827E-5;
-0,000112751948494697;
-0,000148461906099636;
-0,000167671582558305;
-0,000133906052321959;
-3,9149257714602E-5;
8,47697316512778E-5;
0,000184035087566292;
0,000217410081555169;
0,000181919950753251;
0,000111103412854095;
4,85731469852156E-5;
1,80533237811541E-5;
1,22376842906682E-5;
6,54624942277727E-6;
-1,60978847832871E-5;
-5,08437736316669E-5;
-7,78418264105443E-5;
-8,2678606532068E-5;
-7,11479629182307E-5;
-6,46584062318908E-5;
-7,9847550911423E-5;
-0,000110231607624762;
-0,000126798509891017;
-9,8960748638049E-5;
-2,00255088115748E-5;
8,33223578233523E-5;
0,000166036462198319;
0,000193649487891768;
0,000163706143309969;
0,000104233533300199;
5,16226649282074E-5;
2,56416809693588E-5;
2,0196766214092E-5;
1,48353074660717E-5;
-4,62778625149488E-6;
-3,41471501477929E-5;
-5,72410913927651E-5;
-6,19623779905486E-5;
-5,31205745910112E-5;
-4,84383585281686E-5;
-6,16635116268322E-5;
-8,74209840793785E-5;
-0,000101752829240583;
-7,9444140701932E-5;
-1,50086352144313E-5;
6,95589060449983E-5;
0,00013720248885503;
0,000159618080644256;
0,000134818882296115;
8,58108595566365E-5;
4,24111738405559E-5;
2,07879993222733E-5;
1,59480646193114E-5;
1,11871491186834E-5;
-5,05626353060736E-6;
-2,94719792568765E-5;
-4,86383484666132E-5;
-5,28478872336035E-5;
-4,60191249640399E-5;
-4,25352890027588E-5;
-5,35283311046892E-5;
-7,46311228705258E-5;
-8,64652712093189E-5;
-6,86804930198475E-5;
-1,68824845949552E-5;
5,11757777893093E-5;
0,000105661222901092;
0,000123837284836977;
0,000104137184830158;
6,50299410341633E-5;
3,03971015883378E-5;
1,31577636794398E-5;
9,31046126043391E-6;
5,52895780102514E-6;
-7,38590857427922E-6;
-2,67881485944864E-5;
-4,20128188762226E-5;
-4,53688711913658E-5;
-3,99733193396563E-5;
-3,72066281275617E-5;
-4,58504051775812E-5;
-6,2444713582656E-5;
-7,17255930150664E-5;
-5,77103377443001E-5;
-1,69835355459098E-5;
3,65085543808E-5;
7,94106340103332E-5;
9,39763499664129E-5;
7,90144025424672E-5;
4,89297702064242E-5;
2,22902275648837E-5;
9,10804298647204E-6;
6,26962813449108E-6;
3,46930445732426E-6;
-6,38101953399449E-6;
-2,12290466760563E-5;
-3,28713419780708E-5;
-3,54159225478499E-5;
-3,12636172851308E-5;
-2,91161622707217E-5;
-3,56597980093828E-5;
-4,82431613953011E-5;
-5,52668561132821E-5;
-4,46357215980242E-5;
-1,3803767634756E-5;
2,66708789566845E-5;
5,91940601462167E-5;
7,04551954270978E-5;
5,95967172720933E-5;
3,74150283556241E-5;
1,77621062536602E-5;
8,07230165956273E-6;
6,02034805433833E-6;
3,97852108221927E-6;
-3,27078644044758E-6;
-1,42010906353667E-5;
-2,2787606705404E-5;
-2,47293995197653E-5;
-2,17929073646187E-5;
-2,03111408645962E-5;
-2,51187061392679E-5;
-3,42785927440225E-5;
-3,94265542902915E-5;
-3,18972325454848E-5;
-9,91025785233256E-6;
1,89645874033914E-5;
4,22108260967937E-5;
5,04252589778431E-5;
4,30441850907203E-5;
2,76887129861086E-5;
1,4063457430924E-5;
7,33700410621353E-6;
5,87716987430128E-6;
4,40819589190741E-6;
-6,45909584042246E-7;
-8,22047221858162E-6;
-1,42015357188491E-5;
-1,56825849916351E-5;
-1,38738335849833E-5;
-1,30338080253605E-5;
-1,63767163774437E-5;
-2,25911281470495E-5;
-2,61421822950504E-5;
-2,13621141320492E-5;
-7,13881817801229E-6;
1,15678479981595E-5;
2,66731065511751E-5;
3,21820138610241E-5;
2,77868817257683E-5;
1,83418803399875E-5;
9,93972712092044E-6;
5,77690153192716E-6;
4,82413983067184E-6;
3,8503725765983E-6;
7,05589276298196E-7;
-3,94736721189576E-6;
-7,65383193175737E-6;
-8,71725281584068E-6;
-7,86538851951397E-6;
-7,55882636273764E-6;
-9,60857425207418E-6;
-1,32455904417045E-5;
-1,53840030669556E-5;
-1,29487315435018E-5;
-5,40501635298196E-6;
4,54248914768222E-6;
1,26357610240325E-5;
1,58209999142571E-5;
1,40111857171524E-5;
9,67542858330604E-6;
5,79499930843948E-6;
3,86855936437719E-6;
3,385504070632E-6;
2,87264752137057E-6;
1,40485092028523E-6;
-7,00830018527396E-7;
-2,41442525476874E-6;
-3,07741136628933E-6;
-3,0037931437067E-6;
-3,11366043655163E-6;
-4,01683330252581E-6;
-5,40907781326306E-6;
-6,2995901019336E-6;
-5,82947054071324E-6;
-3,9568091185451E-6;
-1,4605419120685E-6;
6,66432546086429E-7;
1,87807339635244E-6;
2,27543638798634E-6;
2,29691145513225E-6;
2,27639652131282E-6;
2,26899925737934E-6;
2,20485265558241E-6;
2,10325988543577E-6;
2,07801292226359E-6;
2,1524449371998E-6;
2,14893734565698E-6;
1,84703460628617E-6;
1,28310861573912E-6;
8,3989918267478E-7;
9,22424054604276E-7;
1,44189903140107E-6;
1,6207346878399E-6;
4,4896483279655E-7;
-2,44641191445794E-6;
-6,22220445086339E-6;
-9,12344515640405E-6;
-9,58735626094906E-6;
-7,35469692929768E-6;
-3,69170436556245E-6;
-4,85002550854152E-7;
1,11075747760964E-6;
1,39490093264222E-6;
1,63553220806452E-6;
2,81476171949143E-6;
4,71008473057262E-6;
6,13555092444824E-6;
6,1376203158777E-6;
5,04495836593581E-6;
4,3253740618062E-6;
5,22807406666813E-6;
7,33706903828098E-6;
8,40543925869368E-6;
5,87212653799985E-6;
-9,79522233926065E-7;
-9,96176541503899E-6;
-1,70445130387337E-5;
-1,89206332547038E-5;
-1,52000126611818E-5;
-8,55589856878789E-6;
-2,7060184059263E-6;
1,98421542704931E-7;
7,60696738284688E-7;
1,27564382250742E-6;
3,43829780271849E-6;
6,82392279314979E-6;
9,41959572301576E-6;
9,67140943045567E-6;
8,14744270921948E-6;
7,20256968948908E-6;
8,77509665976571E-6;
1,21816009148123E-5;
1,39774009533237E-5;
1,03387869797401E-5;
2,70064176525648E-7;
-1,29483037084676E-5;
-2,34397798082366E-5;
-2,64832591488416E-5;
-2,15825877107587E-5;
-1,25486064996274E-5;
-4,57771634546503E-6;
-6,24814798455987E-7;
1,58299649372963E-7;
8,92426739049646E-7;
3,84508517541005E-6;
8,42870917765639E-6;
1,19671503006652E-5;
1,2425889209372E-5;
1,05646844400699E-5;
9,44685876345544E-6;
1,15599834343575E-5;
1,60070789303128E-5;
1,83903379630052E-5;
1,38831229923991E-5;
1,2688428351545E-6;
-1,53059087627274E-5;
-2,8503725830452E-5;
-3,2486616013949E-5;
-2,66747827272732E-5;
-1,57747321630445E-5;
-6,14515719936098E-6;
-1,37157325707779E-6;
-4,1379041347859E-7;
4,94945316666971E-7;
4,06878391527691E-6;
9,59264102788993E-6;
1,38738057947011E-5;
1,45043675470988E-5;
1,23930368389283E-5;
1,11518222990775E-5;
1,36925456084513E-5;
1,89528382080068E-5;
2,1800349435078E-5;
1,66374821510179E-5;
2,07868694781323E-6;
-1,70654816959203E-5;
-3,23406479843935E-5;
-3,70568263828755E-5;
-3,05706165324797E-5;
-1,82687753947113E-5;
-7,39064479926106E-6;
-1,99831744867712E-6;
-9,0666811730632E-7;
1,3700097142359E-7;
4,18166113168678E-6;
1,04161109296922E-5;
1,52613309684826E-5;
1,6031198680048E-5;
1,37454967354052E-5;
1,24232547635707E-5;
1,52897404399907E-5;
2,11599045609077E-5;
2,43604733730724E-5;
1,87282882843405E-5;
2,75485312202649E-6;
-1,82640933842471E-5;
-3,50612470421638E-5;
-4,0328760037626E-5;
-3,33774115767923E-5;
-2,00841096877318E-5;
-8,32034576098526E-6;
-2,4889195799574E-6;
-1,30120805868808E-6;
-1,59515297335702E-7;
4,22150404759458E-6;
1,0962200254238E-5;
1,62118813841013E-5;
1,70899424762683E-5;
1,46939499480521E-5;
1,33254913212942E-5;
1,64259738780531E-5;
2,27251737487822E-5;
2,61788215286116E-5;
2,02383822396814E-5;
3,3127931931788E-6;
-1,8973632018099E-5;
-3,68069356756883E-5;
-4,24664167867639E-5;
-3,52326932138498E-5;
-2,13066753824658E-5;
-8,97485894246725E-6;
-2,86205603234184E-6;
-1,61228620022155E-6;
-4,05814528134448E-7;
4,19323758489736E-6;
1,12609116363027E-5;
1,67747356417193E-5;
1,77325535930538E-5;
1,52807521683521E-5;
1,38951984448927E-5;
1,71488387684966E-5;
2,37188749203772E-5;
2,7337662774553E-5;
2,12277701997446E-5;
3,75065975807825E-6;
-1,92765701991367E-5;
-3,77241344951019E-5;
-4,36361533927368E-5;
-3,62767401937805E-5;
-2,20271288378279E-5;
-9,40107492453811E-6;
-3,14279279450731E-6;
-1,860128202564E-6;
-6,17438935904514E-7;
4,09764322294958E-6;
1,13376744880794E-5;
1,69945090636131E-5;
1,80072784252358E-5;
1,55462636066008E-5;
1,4168452058988E-5;
1,7505572388088E-5;
2,42102783450937E-5;
2,79183742486066E-5;
2,17578966135405E-5;
4,07298885192923E-6;
-1,92428594339881E-5;
-3,79418414000528E-5;
-4,39851262604569E-5;
-3,6632119923241E-5;
-2,23215917315732E-5;
-9,63412299912627E-6;
-3,34567841833354E-6;
-2,05452034777364E-6;
-7,99592245355212E-7;
3,94485890124137E-6;
1,12256542522375E-5;
1,69222971185928E-5;
1,7968686145493E-5;
1,55378155542328E-5;
1,41886345423768E-5;
1,75498761320699E-5;
2,42734336365493E-5;
2,8006133270273E-5;
2,18954040758577E-5;
4,29366179439054E-6;
-1,89276855577386E-5;
-3,75701103255289E-5;
-4,36405585418857E-5;
-3,64037969933419E-5;
-2,22525957972272E-5;
-9,69912373505514E-6;
-3,47722815337493E-6;
-2,19793210791285E-6;
-9,5087083210867E-7;
3,75006197925576E-6;
1,09608789499073E-5;
1,66102946267366E-5;
1,76718475802387E-5;
1,53035063976572E-5;
1,39998961968313E-5;
1,73350518739357E-5;
2,39800052719021E-5;
2,76825158188222E-5;
2,17045609930596E-5;
4,42823766003788E-6;
-1,83791717761437E-5;
-3,67077717879208E-5;
-4,27174673430341E-5;
-3,5686862013864E-5;
-2,18768199575396E-5;
-9,61889228728198E-6;
-3,54354881597436E-6;
-2,29305229421073E-6;
-1,07067824268357E-6;
3,52620184280607E-6;
1,05751322353408E-5;
1,61048707737454E-5;
1,71656113085767E-5;
1,4885693970871E-5;
1,3640873492333E-5;
1,69079671499755E-5;
2,33934981456595E-5;
2,70199833391272E-5;
2,12420222648312E-5;
4,48898705999171E-6;
-1,76430727934188E-5;
-3,54468307109421E-5;
-4,13227543538008E-5;
-3,45703011297793E-5;
-2,12485108585619E-5;
-9,41702838573692E-6;
-3,55312390597792E-6;
-2,34526373583925E-6;
-1,16140251138255E-6;
3,28211291987184E-6;
1,00943642940144E-5;
1,54452540569112E-5;
1,64915477320592E-5;
1,43201951436198E-5;
1,31441243053325E-5;
1,6308730295106E-5;
2,25691821760758E-5;
2,60820379492797E-5;
2,0557163616746E-5;
4,48534254138742E-6;
-1,67622375450461E-5;
-3,38718320775865E-5;
-3,95544192881347E-5;
-3,31359995896399E-5;
-2,04182667934675E-5;
-9,1164925569971E-6;
-3,51522576309456E-6;
-2,36095393356363E-6;
-1,22663138339015E-6;
3,02441162235059E-6;
9,54069637578582E-6;
1,46656448686241E-5;
1,5686113564938E-5;
1,36384425229386E-5;
1,25383056752004E-5;
1,55729124920278E-5;
2,1556362406862E-5;
2,4925507610958E-5;
1,96942995161363E-5;
4,42598132232696E-6;
-1,57747101614289E-5;
-3,20581179313158E-5;
-3,74998738721737E-5;
-3,1457019846886E-5;
-1,94312327477874E-5;
-8,73774916327568E-6;
-3,43806887070676E-6;
-2,34571301483929E-6;
-1,26940486693372E-6;
2,75921387010993E-6;
8,93412752985355E-6;
1,37968694773628E-5;
1,47822285225866E-5;
1,28689753682308E-5;
1,18495633498777E-5;
1,47328748878191E-5;
2,03996701798531E-5;
2,3601786892659E-5;
1,86937905475875E-5;
4,31966570558396E-6;
-1,47131874982535E-5;
-3,00715201363905E-5;
-3,52357610447469E-5;
-2,95974157993806E-5;
-1,83268374589141E-5;
-8,29844533915334E-6;
-3,3284958876508E-6;
-2,30407307292863E-6;
-1,29200854480412E-6;
2,49231765202648E-6;
8,29272341544419E-6;
1,28665741886162E-5;
1,38094167781723E-5;
1,20374830097543E-5;
1,11014978494082E-5;
1,38177169650264E-5;
1,91390445942814E-5;
2,21567959992318E-5;
1,75918721156124E-5;
4,17485589070441E-6;
-1,36056975710303E-5;
-2,79692869267322E-5;
-3,28289519380166E-5;
-2,76131398207223E-5;
-1,7139548275863E-5;
-7,81402309228797E-6;
-3,19252270370256E-6;
-2,24006192373594E-6;
-1,29652101091715E-6;
2,22870624020402E-6;
7,63219701621257E-6;
1,18988706412442E-5;
1,27934534795172E-5;
1,11664153601741E-5;
1,0314762293354E-5;
1,28529113787502E-5;
1,78094405823268E-5;
2,06307483459385E-5;
1,64203631550859E-5;
3,99919215166319E-6;
-1,24763871128786E-5;
-2,58010557864437E-5;
-3,03375746824087E-5;
-2,5552957013003E-5;
-1,58995633491289E-5;
-7,29823364644108E-6;
-3,03575289611426E-6;
-2,15756354930556E-6;
-1,28513988543509E-6;
1,97230809950827E-6;
6,96578222973708E-6;
1,09142832515809E-5;
1,17563505416333E-5;
1,02749621364135E-5;
9,50703669153292E-6;
1,18603408080354E-5;
1,64409684910667E-5;
1,90583447343427E-5;
1,52067816187756E-5;
3,79940157889339E-6;
-1,13459061179756E-5;
-2,36094748494301E-5;
-2,78116673470685E-5;
-2,34589665399755E-5;
-1,46331184854985E-5;
-6,76323135922086E-6;
-2,86336777303785E-6;
-2,06028408036016E-6;
-1,2601187515786E-6;
1,72612826722457E-6;
6,3044809138714E-6;
9,93009580315623E-6;
1,07167129385174E-5;
9,37936845611842E-6;
8,69332603074284E-6;
1,08586485676481E-5;
1,50593449533776E-5;
1,74692730192073E-5;
1,39747602982993E-5;
3,58146122558414E-6;
-1,02315616428379E-5;
-2,1430596067814E-5;
-2,5293650632024E-5;
-2,13669424518304E-5;
-1,33626143405034E-5;
-6,21953710584815E-6;
-2,67999617074926E-6;
-1,95159959708938E-6;
-1,22359202470784E-6;
1,49249083104241E-6;
5,65739335537904E-6;
8,96075108966406E-6;
9,6901476503324E-6;
8,49330485075276E-6;
7,88630655740232E-6;
9,86361442572841E-6;
1,36863414671185E-5;
1,58887014971579E-5;
1,27444406925758E-5;
3,35073729897742E-6;
-9,14751014188371E-6;
-1,92943367552189E-5;
-2,28188679302051E-5;
-1,93067754174681E-5;
-1,21068482932093E-5;
-5,67607477164321E-6;
-2,48966477863278E-6;
-1,83449888535971E-6;
-1,17751148295283E-6;
1,27317110674656E-6;
5,03194643906679E-6;
8,0181441176047E-6;
8,68956152512676E-6;
7,62811996343728E-6;
7,09654500992576E-6;
8,88841064854686E-6;
1,23401330941839E-5;
1,43376653783938E-5;
1,15327621122144E-5;
3,11201466819401E-6;
-8,10507088521767E-6;
-1,72250495627592E-5;
-2,04162272068508E-5;
-1,73029991589609E-5;
-1,0881334277862E-5;
-5,14031489207489E-6;
-2,29585781710845E-6;
-1,7116182885302E-6;
-1,12366450586364E-6;
1,06942585165587E-6;
4,43403268857149E-6;
7,11184499573417E-6;
7,72538971879309E-6;
6,79302509157632E-6;
6,33265572186576E-6;
7,94381123863216E-6;
1,10355952819171E-5;
1,28334056670904E-5;
1,03537032606979E-5;
2,86948531716363E-6;
-7,11305119785362E-6;
-1,52421058659031E-5;
-1,81088670521626E-5;
-1,53753424186784E-5;
-9,69864848705216E-6;
-4,61844062709121E-6;
-2,10158612461023E-6;
-1,58529565902355E-6;
-1,06370728668987E-6;
8,82039327465455E-7;
3,86814320010636E-6;
6,2493045623068E-6;
6,80581649146447E-6;
5,99527983853628E-6;
5,60147301237448E-6;
7,03839777550344E-6;
9,78459060191991E-6;
1,13897055071969E-5;
9,21853493399375E-6;
2,62675909158221E-6;
-6,17805555544888E-6;
-1,33604498696126E-5;
-1,59147793041279E-5;
-1,35392443924833E-5;
-8,56873769835064E-6;
-4,11546939855185E-6;
-1,90942904715076E-6;
-1,4575945836953E-6;
-9,99168617620081E-7;
7,11379241089507E-7;
3,33752995213687E-6;
5,43608757976383E-6;
5,9370185758861E-6;
5,24040698177877E-6;
4,90823557632494E-6;
6,17878641743463E-6;
8,59629439430024E-6;
1,00172658731805E-5;
8,13610705637098E-6;
2,38691382077305E-6;
-5,30474292823622E-6;
-1,15911009848193E-5;
-1,38473803365712E-5;
-1,18063144326164E-5;
-7,49919545497733E-6;
-3,63537471345382E-6;
-1,7215581165539E-6;
-1,33030161138402E-6;
-9,31436686427174E-7;
5,57471078600545E-7;
2,84436927562259E-6;
4,67611616639248E-6;
5,12341653926642E-6;
4,53239626911619E-6;
4,25678220791086E-6;
5,36986949667046E-6;
7,47750207179117E-6;
8,72404433312578E-6;
7,11311160729958E-6;
2,15253838044318E-6;
-4,49607143495819E-6;
-9,94162007940506E-6;
-1,19160551488952E-5;
-1,0184790586431E-5;
-6,49552544414832E-6;
-3,18117587980389E-6;
-1,53976179115956E-6;
-1,20494404538486E-6;
-8,61758573835927E-7;
4,20057146751537E-7;
2,38991177370622E-6;
3,97187784933934E-6;
4,36790147926289E-6;
3,87391472847524E-6;
3,64972808681225E-6;
4,61502205972205E-6;
6,43292801168329E-6;
7,5156063356454E-6;
6,15434512952125E-6;
1,92577718339066E-6;
-3,75352957053576E-6;
-8,41657267512719E-6;
-1,01266770534133E-5;
-8,67995669536695E-6;
-5,56140095524918E-6;
-2,75505260931713E-6;
-1,36547709262832E-6;
-1,08280227601929E-6;
-7,9123232385271E-7;
2,98660101269514E-7;
1,97461965515155E-6;
3,32463445904802E-6;
3,67204292254947E-6;
3,26646923181615E-6;
3,08862480826917E-6;
3,9163022331566E-6;
5,46546732520381E-6;
6,39541441699316E-6;
5,26294151658481E-6;
1,70836830117004E-6;
-3,07736415077674E-6;
-7,01794344943446E-6;
-8,48209269017351E-6;
-7,29455351765801E-6;
-4,69890597155766E-6;
-2,35844964582383E-6;
-1,1998321373479E-6;
-9,64934340045755E-7;
-7,20827441277798E-7;
1,92609632579663E-7;
1,5982883716788E-6;
2,73459621702502E-6;
3,03627677950266E-6;
2,71058209737737E-6;
2,57411079427096E-6;
3,27463134471132E-6;
4,57644933856717E-6;
5,36512503971765E-6;
4,44058693232123E-6;
1,50167261529136E-6;
-2,46677822766103E-6;
-5,74553984150484E-6;
-6,98258418019415E-6;
-6,02915702672595E-6;
-3,90877105379851E-6;
-1,99217312771698E-6;
-1,04366996417514E-6;
-8,52194146132108E-7;
-6,51380859316166E-7;
1,01099661813968E-7;
1,26015521685066E-6;
2,20109123788888E-6;
2,46008745952158E-6;
2,20593593453223E-6;
2,10604433775741E-6;
2,68996291277183E-6;
3,76586921230523E-6;
4,42485272308201E-6;
3,68773867136704E-6;
1,30672047522346E-6;
-1,92012294586926E-6;
-4,59735129671575E-6;
-5,62627610139754E-6;
-4,88251322965886E-6;
-3,19057322609608E-6;
-1,65648498457407E-6;
-8,97592296670242E-7;
-7,45248994869205E-7;
-5,83605676559463E-7;
2,32155296032026E-8;
9,59004893644662E-7;
1,72271944701787E-6;
1,94217090441264E-6;
1,75151908048739E-6;
1,68363464466427E-6;
2,16144267746968E-6;
3,03260543165968E-6;
3,57341598927464E-6;
3,00380067106475E-6;
1,12423626909422E-6;
-1,43505584543492E-6;
-3,56987109231568E-6;
-4,40951939177327E-6;
-3,85186269251274E-6;
-2,54293536362478E-6;
-1,35117918019238E-6;
-7,61971696238347E-7;
-6,44600257701755E-7;
-5,18105617914499E-7;
-4,20273084938949E-8;
6,93268273520528E-7;
1,2974991334339E-6;
1,48058140769802E-6;
1,34575471634195E-6;
1,30556553541778E-6;
1,68755055059234E-6;
2,3746158996485E-6;
2,8085672537864E-6;
2,38731412444503E-6;
9,54686348036832E-7;
-1,00869429769127E-6;
-2,65839891323184E-6;
-3,32723173570389E-6;
-2,93321833036374E-6;
-1,96369415386287E-6;
-1,07566378283789E-6;
-6,36996242418573E-7;
-5,50595384794882E-7;
-4,55367463073332E-7;
-9,56607345802835E-8;
4,61096729138608E-7;
9,2298610700351E-7;
1,07286360423663E-6;
9,86615255567655E-7;
9,70090948301479E-7;
1,26622773775041E-6;
1,78911724857205E-6;
2,12719297459812E-6;
1,83611065833289E-6;
7,98303276893368E-7;
-6,37751444005737E-7;
-1,85729972168082E-6;
-2,37320410364097E-6;
-2,12162743914714E-6;
-1,4500610921947E-6;
-8,29026600779131E-7;
-5,22682241382549E-7;
-4,63450745928682E-7;
-3,95786403889169E-7;
-1,38733654905523E-7;
2,60441556040882E-7;
5,96387942396375E-7;
7,16179334725168E-7;
6,71722361039305E-7;
6,75133158709694E-7;
8,94997899512202E-7;
1,2727388828302E-6;
1,52549853982365E-6;
1,34745274489422E-6;
6,55117910133135E-7;
-3,18642398602493E-7;
-1,16024244805169E-6;
-1,54037616625314E-6;
-1,41139570114846E-6;
-9,98763193834792E-7;
-6,10101243467863E-7;
-4,18909069275639E-7;
-3,83263693379538E-7;
-3,39659058846398E-7;
-1,72292871142692E-7;
8,91199934973766E-8;
3,14663285289466E-7;
4,07403025214393E-7;
3,98444949081173E-7;
4,18371384735846E-7;
5,71071158025924E-7;
8,21674513557409E-7;
9,99170892909696E-7;
9,1816883537329E-7;
5,24990183048372E-7;
-4,76027221804914E-8;
-5,60409639751321E-7;
-8,21079593016794E-7;
-7,96293041706182E-7;
-6,06164845757738E-7;
-4,17522721999227E-7;
-3,2543625490259E-7;
-3,10033146918387E-7;
-2,87202832661259E-7;
-1,97367215744917E-7;
-5,51375137757074E-8;
7,46054617238349E-8;
1,43221114094155E-7;
1,63970729595714E-7;
1,97303831468297E-7;
2,91426688917914E-7;
4,31799415610371E-7;
5,43525570498E-7;
5,44762154814934E-7;
4,07636657490038E-7;
1,79243363566536E-7;
-5,06701304544646E-8;
-2,07244502614193E-7;
-2,69728524806008E-7;
-2,68381835051908E-7;
-2,49775082685254E-7;
-2,41924395977942E-7;
-2,43666537729433E-7;
-2,38557810069598E-7;
-2,14958813311811E-7;
-1,74632357615188E-7;
-1,27081120322919E-7;
-7,97949448107259E-8;
-3,46127222200751E-8;
9,32592401688526E-9;
5,29012124085627E-8;
9,87857596792606E-8;
1,53630398349572E-7;
2,23515912076599E-7;
3,02650741585386E-7;
3,65786477065808E-7;
3,76257057965275E-7;
3,0941425712631E-7;
1,75092704678731E-7;
1,86217431325707E-8;
-1,05242025932334E-7;
-1,67955367122971E-7;
-1,84002000041179E-7;
-1,93801469591898E-7;
-2,26018144715633E-7;
-2,71656512204825E-7;
-2,93718615936504E-7;
-2,65112682845235E-7;
-2,0027250773184E-7;
-1,48225247887411E-7;
-1,47745271238937E-7;
-1,81810582094363E-7;
-1,7558531839116E-7;
-4,94211067168597E-8;
2,09534086031387E-7;
5,15888348011765E-7;
7,27677306031117E-7;
7,37242818805103E-7;
5,45043018270017E-7;
2,58959234941856E-7;
1,77600765263883E-8;
-1,03053601475477E-7;
-1,30814261510738E-7;
-1,52945447656958E-7;
-2,3145181173379E-7;
-3,48467968795322E-7;
-4,28600947455929E-7;
-4,16185780663206E-7;
-3,35966418315635E-7;
-2,78018701126606E-7;
-3,13772187921215E-7;
-4,14459414828344E-7;
-4,49233406177859E-7;
-2,77960949850927E-7;
1,27703545395069E-7;
6,33315485355453E-7;
1,01080766302033E-6;
1,08451528890703E-6;
8,46954968642664E-7;
4,56742751554893E-7;
1,20945017671078E-7;
-4,66914097753528E-8;
-8,38293819387722E-8;
-1,1596010713076E-7;
-2,3210314530318E-7;
-4,07248015511081E-7;
-5,34950793504636E-7;
-5,36404854737218E-7;
-4,4460572311376E-7;
-3,82690250670235E-7;
-4,48405690811058E-7;
-6,03588018683762E-7;
-6,72390349877681E-7;
-4,66013314029631E-7;
5,65253918752952E-8;
7,2170805239643E-7;
1,23268185300208E-6;
1,35933096228141E-6;
1,08753703607773E-6;
6,16025444739783E-7;
2,06028895636268E-7;
1,68514545576527E-9;
-4,27349743892646E-8;
-8,27628691433355E-8;
-2,28758611061171E-7;
-4,5009842816133E-7;
-6,15885078798925E-7;
-6,29060617771128E-7;
-5,29025430099338E-7;
-4,64809126358107E-7;
-5,54800026608511E-7;
-7,53537450007121E-7;
-8,50031161032303E-7;
-6,17425304908306E-7;
-4,67942137476626E-9;
7,84540051767877E-7;
1,40008195872281E-6;
1,56951578243258E-6;
1,27328796733927E-6;
7,40757683280152E-7;
2,7470725121993E-7;
4,26560369418924E-8;
-7,18967965426567E-9;
-5,32416406657569E-8;
-2,22134684936458E-7;
-4,79008762523043E-7;
-6,74382257295276E-7;
-6,97302235157818E-7;
-5,91945329413658E-7;
-5,2685590030272E-7;
-6,36004034298465E-7;
-8,68497560083649E-7;
-9,86971597154593E-7;
-7,35941249949036E-7;
-5,66145660438233E-8;
8,25094674656633E-7;
1,51947865458196E-6;
1,72256190188872E-6;
1,41044093613655E-6;
8,34743095596139E-7;
3,28633529561007E-7;
7,68049943434019E-8;
2,31701532777596E-8;
-2,72479005845165E-8;
-2,12886423763401E-7;
-4,95851310964248E-7;
-7,13264542612069E-7;
-7,44129755396656E-7;
-6,3595973285265E-7;
-5,71193865672763E-7;
-6,94930946162704E-7;
-9,52485693314542E-7;
-1,08783171834461E-6;
-8,25167213191177E-7;
-9,99993422231053E-8;
8,46449246086871E-7;
1,5969867820233E-6;
1,82556949309846E-6;
1,50491962407139E-6;
9,01608345639957E-7;
3,69404484131052E-7;
1,04722435889085E-7;
4,87192530882235E-8;
-4,61404390820243E-9;
-2,01601746193367E-7;
-5,0236947542755E-7;
-7,35180754483869E-7;
-7,72361244050354E-7;
-6,63509479818626E-7;
-6,00062147198358E-7;
-7,34346947380021E-7;
-1,00930842577697E-6;
-1,15699545891985E-6;
-8,88542674753443E-7;
-1,35556386103689E-7;
8,51459431819596E-7;
1,63833188605142E-6;
1,88520386071731E-6;
1,56229791222679E-6;
9,4478289590685E-7;
3,98543044650858E-7;
1,26986666122426E-7;
6,98401549588632E-8;
1,48473670117353E-8;
-1,88806492650852E-7;
-5,00177319580216E-7;
-7,4259542515005E-7;
-7,84626371995681E-7;
-6,76882569460912E-7;
-6,15558405519308E-7;
-7,56845030563361E-7;
-1,04254508019146E-6;
-1,19859138224866E-6;
-9,29318104190043E-7;
-1,63996505340706E-7;
8,42757881288655E-7;
1,64883412013278E-6;
1,90767973887874E-6;
1,5877824901273E-6;
9,67481103406099E-7;
4,17495915608205E-7;
1,4416374849633E-7;
8,69138046116868E-8;
3,13401205613078E-8;
-1,74959612965578E-7;
-4,90750465876973E-7;
-7,37783943504618E-7;
-7,83361207501341E-7;
-6,7819658262589E-7;
-6,19629319535267E-7;
-7,64842384575494E-7;
-1,05553529524714E-6;
-1,21647489220348E-6;
-9,50541327402351E-7;
-1,86020604664423E-7;
8,22747589971625E-7;
1,63339588983077E-6;
1,89873236060814E-6;
1,58618866431465E-6;
9,72685915166509E-7;
4,27617478969402E-7;
1,56804333765122E-7;
1,00321541907342E-7;
4,50748072438902E-8;
-1,60466663720597E-7;
-4,75430506443565E-7;
-7,22823473089655E-7;
-7,70797644890257E-7;
-6,69400892395494E-7;
-6,14073500657701E-7;
-7,6057189066996E-7;
-1,05136384082309E-6;
-1,21421285961638E-6;
-9,5504390259648E-7;
-2,02307925498279E-7;
7,93600630890159E-7;
1,59649340855309E-6;
1,86362149812817E-6;
1,5619466558294E-6;
9,63152456070634E-7;
4,30170554655686E-7;
1,65428801053692E-7;
1,10430954922972E-7;
5,6269587487663E-8;
-1,45672683033297E-7;
-4,5542591848978E-7;
-6,99608336505535E-7;
-7,48971671450993E-7;
-6,52274713422271E-7;
-6,00540550118272E-7;
-7,46082084021016E-7;
-1,0328639722234E-6;
-1,1950858652715E-6;
-9,4543902040565E-7;
-2,13506688159533E-7;
7,57272393230449E-7;
1,54218720660971E-6;
1,80712861011665E-6;
1,51908852374594E-6;
9,41398723749535E-7;
4,26325262353996E-7;
1,70538490112714E-7;
1,17600831244021E-7;
6,51423362863191E-8;
-1,30873857759932E-7;
-4,31818396605717E-7;
-6,6983628731939E-7;
-7,1971958978164E-7;
-6,28424873473303E-7;
-5,80516947877532E-7;
-7,23237853193994E-7;
-1,00261530634211E-6;
-1,16208185178772E-6;
-9,24121278242448E-7;
-2,20237331025591E-7;
7,15499882921911E-7;
1,47412652750779E-6;
1,73356257333144E-6;
1,46125719130105E-6;
9,09709819237464E-7;
4,17150288883776E-7;
1,72598931324691E-7;
1,22175466087785E-7;
7,19098964268704E-8;
-1,16316824774438E-7;
-4,05561733167852E-7;
-6,35027794760361E-7;
-6,8468815599468E-7;
-5,99299703317536E-7;
-5,55349426601137E-7;
-6,93718122244035E-7;
-9,62949686611583E-7;
-1,11790801814658E-6;
-8,93263452943055E-7;
-2,23081398609018E-7;
6,6981776745645E-7;
1,39556517027916E-6;
1,64678104653131E-6;
1,39172569052166E-6;
8,70146728759214E-7;
4,03624003104191E-7;
1,72049316835799E-7;
1,24477446997237E-7;
7,67872913338051E-8;
-1,02197966416364E-7;
-3,77492781542338E-7;
-5,96526609026294E-7;
-6,45335373442666E-7;
-5,66182913501897E-7;
-5,26237921909673E-7;
-6,59024612134175E-7;
-9,15952143790565E-7;
-1,06498952581656E-6;
-8,54823396543134E-7;
-2,22589760743569E-7;
6,21561433939154E-7;
1,3093786596222E-6;
1,55020296546925E-6;
1,31339935320788E-6;
8,2454475716768E-7;
3,86623053368962E-7;
1,69293527176833E-7;
1,2481777970502E-7;
7,99825567011657E-8;
-8,86831718429483E-8;
-3,48338544145821E-7;
-5,55509979722639E-7;
-6,02949523765772E-7;
-5,30209678378408E-7;
-4,94244789392459E-7;
-6,20496898639659E-7;
-8,63480225307573E-7;
-1,00549011363269E-6;
-8,10556534475465E-7;
-2,19266044910812E-7;
5,71889544431726E-7;
1,21808209349172E-6;
1,44683232403912E-6;
1,2288393643453E-6;
7,74532161210813E-7;
3,66938882276141E-7;
1,64706567877094E-7;
1,23480928418604E-7;
8,16925960832743E-8;
-7,58939758056714E-8;
-3,18720145072538E-7;
-5,12998898030865E-7;
-5,58646157880842E-7;
-4,92371022818617E-7;
-4,60300882240898E-7;
-5,79305896793545E-7;
-8,07166860648165E-7;
-9,41312168223688E-7;
-7,62013983666718E-7;
-2,13582462482732E-7;
5,2178428109991E-7;
1,1238525097211E-6;
1,33928256569668E-6;
1,14028184056294E-6;
7,21535596725695E-7;
3,45271083020454E-7;
1,5862706321168E-7;
1,20734316957697E-7;
8,21102245977897E-8;
-6,39251618158075E-8;
-2,89165498798887E-7;
-4,69869837052847E-7;
-5,13392778409507E-7;
-4,53521700852287E-7;
-4,25213266507264E-7;
-5,36475602817054E-7;
-7,48435517676906E-7;
-8,74120139619998E-7;
-7,10560775163394E-7;
-2,05967935027718E-7;
4,72077017278763E-7;
1,02855690329989E-6;
1,22979827242434E-6;
1,04965464500767E-6;
6,66797412128641E-7;
3,22239107836895E-7;
1,51365157134269E-7;
1,16824346923063E-7;
8,1417211082342E-8;
-5,28363618895882E-8;
-2,60111356290198E-7;
-4,26861513886783E-7;
-4,68006740662706E-7;
-4,1439627157849E-7;
-3,8967706465712E-7;
-4,92883496626969E-7;
-6,88514995444096E-7;
-8,05354591985121E-7;
-6,57383565071383E-7;
-1,96811529212837E-7;
4,23452462290535E-7;
9,33767954955335E-7;
1,12028880960211E-6;
9,58603354619112E-7;
6,11378088585385E-7;
2,98378732123532E-7;
1,43198290786192E-7;
1,11974667846998E-7;
7,97782516565385E-8;
-4,26714268917958E-8;
-2,31918584663327E-7;
-3,84594481315241E-7;
-4,23179207039837E-7;
-3,75609041647283E-7;
-3,5427758287843E-7;
-4,49281387703224E-7;
-6,28453800633957E-7;
-7,36244198749006E-7;
-6,03505277093577E-7;
-1,86464773563354E-7;
3,76468634598667E-7;
8,40795779134935E-7;
1,01235232701797E-6;
8,68512858483639E-7;
5,56181196148943E-7;
2,74154672433706E-7;
1,34371974894403E-7;
1,06388368407897E-7;
7,73526561005229E-8;
-3,34424200393309E-8;
-2,0486821532627E-7;
-3,43571162188799E-7;
-3,79473726007709E-7;
-3,37669928936349E-7;
-3,19506030216421E-7;
-4,06292582182595E-7;
-5,69129418569751E-7;
-6,67825251498874E-7;
-5,49790780780805E-7;
-1,75244091488753E-7;
3,31561826906772E-7;
7,50707942959408E-7;
9,0729943705571E-7;
7,80525692733749E-7;
5,01957410737115E-7;
2,49961392884964E-7;
1,25105026282506E-7;
1,00246890770451E-7;
7,42840983991715E-8;
-2,51503972819739E-8;
-1,79184210243917E-7;
-3,04196654947869E-7;
-3,37351100158794E-7;
-3,00995028700862E-7;
-2,85762353021047E-7;
-3,64436994734575E-7;
-5,11271539358112E-7;
-6,0095810739113E-7;
-4,96969282041948E-7;
-1,63425229781615E-7;
2,8907030111716E-7;
6,64354931207727E-7;
8,06192009283434E-7;
6,9557347314569E-7;
4,493262462531E-7;
2,26133489765863E-7;
1,15589111257655E-7;
9,37160366676948E-8;
7,07050897305679E-8;
-1,77802589749761E-8;
-1,55029023539772E-7;
-2,66782403470178E-7;
-2,9716960195297E-7;
-2,65912469349086E-7;
-2,53369189411406E-7;
-3,24131669478405E-7;
-4,55466367713858E-7;
-5,36339931456836E-7;
-4,45636036481593E-7;
-1,51253432172344E-7;
2,49234808176346E-7;
5,82392310048889E-7;
7,09853676660723E-7;
6,14387318978415E-7;
3,98780990876359E-7;
2,02943182862929E-7;
1,05987627894831E-7;
8,69367969666204E-8;
6,67365325850792E-8;
-1,13030468848938E-8;
-1,32519524298484E-7;
-2,31561499634255E-7;
-2,59201994086038E-7;
-2,32675466509861E-7;
-2,22572565336391E-7;
-2,85701360665191E-7;
-4,02181065240655E-7;
-4,74526309364766E-7;
-3,96273096392052E-7;
-1,38943793595744E-7;
2,12218357952474E-7;
5,05307409655927E-7;
6,18910028897062E-7;
5,37528487738944E-7;
3,50707500786476E-7;
1,80612445765282E-7;
9,64429930293727E-8;
8,00357293259653E-8;
6,24849215616861E-8;
-5,67709056953139E-9;
-1,11721530777424E-7;
-1,98696223229537E-7;
-2,23642757903678E-7;
-2,01465943606389E-7;
-1,93560650112031E-7;
-2,49396634220946E-7;
-3,51766824484917E-7;
-4,15942068299615E-7;
-3,49258646629466E-7;
-1,26674519064488E-7;
1,78116418122706E-7;
4,33430090023863E-7;
5,33803157503631E-7;
4,65404773083352E-7;
3,05393195122083E-7;
1,59316639502335E-7;
8,70746855459836E-8;
7,3121087677483E-8;
5,80446345401946E-8;
-8,59942828201602E-10;
-9,26683352427792E-8;
-1,68284752963662E-7;
-1,90619208821708E-7;
-1,72410192008061E-7;
-1,66464163063371E-7;
-2,15392681543334E-7;
-3,04479219598805E-7;
-3,6089639201095E-7;
-3,0487267562927E-7;
-1,14603058772091E-7;
1,46959532554573E-7;
3,66964755426384E-7;
4,54818479005231E-7;
3,98284228025063E-7;
2,63039066355592E-7;
1,39187583388397E-7;
7,7978010864328E-8;
6,62860486393432E-8;
5,35034560448888E-8;
3,2014080316974E-9;
-7,53617148714573E-8;
-1,4037722932785E-7;
-1,60202939472543E-7;
-1,45580001062514E-7;
-1,4136197493164E-7;
-1,83804089877646E-7;
-2,60490732796034E-7;
-3,09604946207442E-7;
-2,63320022746109E-7;
-1,02857095118168E-7;
1,18735357245575E-7;
3,05999711108583E-7;
3,82105061765565E-7;
3,36327496146335E-7;
2,23773201553352E-7;
1,20320302151891E-7;
6,92351963626827E-8;
5,96079081001627E-8;
4,89337580111607E-8;
6,56310526430079E-9;
-5,97741128782428E-8;
-1,14973956249031E-7;
-1,32413608686986E-7;
-1,21002963129283E-7;
-1,18293817871858E-7;
-1,54695436199917E-7;
-2,19891613978162E-7;
-2,62185095792602E-7;
-2,24726780087543E-7;
-9,15391490871758E-8;
9,33833938200938E-8;
2,50530798229555E-7;
3,15699967861514E-7;
2,795850116388E-7;
1,87654545016863E-7;
1,02777523991487E-7;
6,09091553727676E-8;
5,31506411768764E-8;
4,43976210849422E-8;
9,28234975674512E-9;
-4,58586979866279E-8;
-9,20402505481939E-8;
-1,07227981279187E-7;
-9,86720617633532E-8;
-9,7264063665187E-8;
-1,28080442808475E-7;
-1,82715759814009E-7;
-2,18689325908322E-7;
-1,89162879666041E-7;
-8,07361344313244E-8;
7,0812039847353E-8;
2,00470411788719E-7;
2,55538484340689E-7;
2,28033343395943E-7;
1,54694333219205E-7;
8,65921826353427E-8;
5,30462079770827E-8;
4,69677519603604E-8;
3,9950699317879E-8;
1,14186940606247E-8;
-3,35492099570339E-8;
-7,15114658001112E-8;
-8,45904732804655E-8;
-7,85439679658654E-8;
-7,82432341449763E-8;
-1,03936355722663E-7;
-1,48940589250757E-7;
-1,79100832325926E-7;
-1,56638913889331E-7;
-7,05110429330047E-8;
5,09037587782885E-8;
1,55669917413479E-7;
2,01476653702734E-7;
1,81569051386614E-7;
1,24850399165459E-7;
7,17757645032562E-8;
4,56815149109177E-8;
4,10973845394494E-8;
3,56375647729567E-8;
1,30317159159774E-8;
-2,27674598783288E-8;
-5,32960738743929E-8;
-6,44171317453645E-8;
-6,05554573936114E-8;
-6,11822559527663E-8;
-8,22133634898007E-8;
-1,18499040056294E-7;
-1,43351501918171E-7;
-1,27128159418635E-7;
-6,09105685838157E-8;
3,35197717770968E-8;
1,15923306568551E-7;
1,5330746105742E-7;
1,40039610290239E-7;
9,80472583538999E-8;
5,83157043027022E-8;
3,88346288875778E-8;
3,55700715144752E-8;
3,14940001460263E-8;
1,41768769042244E-8;
-1,3424260098239E-8;
-3,72838228332893E-8;
-4,65998039124273E-8;
-4,46181217251303E-8;
-4,60094423652011E-8;
-6,28280312648085E-8;
-9,12857579784084E-8;
-1,1133118043758E-7;
-1,0055848242386E-7;
-5,19669775679309E-8;
1,85035224956318E-8;
8,09882488312305E-8;
1,1076747657158E-7;
1,03239464375221E-7;
7,41755066305824E-8;
4,6184967576282E-8;
3,25226749418286E-8;
3,04080426199381E-8;
2,75501244388727E-8;
1,49143452235877E-8;
-5,42325080211171E-9;
-2,33505188891592E-8;
-3,10155141881718E-8;
-3,06310310582191E-8;
-3,26360826577122E-8;
-4,56801660123014E-8;
-6,71673260737655E-8;
-8,28930985369242E-8;
-7,68351522054541E-8;
-4,36982225508872E-8;
5,69136802206228E-9;
5,05876512704772E-8;
7,35592866360022E-8;
7,09323188139203E-8;
5,31029529225169E-8;
3,53411087783858E-8;
2,67441621698076E-8;
2,56237950180204E-8;
2,38267143628105E-8;
1,5294106025021E-8;
1,33683814511231E-9;
-1,13602968852511E-8;
-1,75269936022005E-8;
-1,84793222456539E-8;
-2,09640774547363E-8;
-3,06542766662102E-8;
-4,59893097645068E-8;
-5,78625687161133E-8;
-5,58306439400363E-8;
-3,61108419742207E-8;
-5,08740374707068E-9;
2,44276569979201E-8;
4,13535072866954E-8;
4,28548091071366E-8;
3,46783070047304E-8;
2,57305108698653E-8;
2,14962287120229E-8;
2,12230275150153E-8;
2,03424726083092E-8;
1,5368923107155E-8;
6,95602246298464E-9;
-1,17353301033802E-9;
-5,99087459091598E-9;
-8,04204160693919E-9;
-1,088677343067E-8;
-1,76225934203312E-8;
-2,75767656958987E-8;
-3,60458601229556E-8;
-3,7407913048956E-8;
-2,92003508896902E-8;
-1,40047973234802E-8;
2,19438683581881E-9;
1,38020046030937E-8;
1,87243351706468E-8;
1,87367577337083E-8;
1,72912849814921E-8;
1,67675684105748E-8;
1,7207979952138E-8;
1,71060695124386E-8;
1,51850582248887E-8;
1,1540176214136E-8;
7,35769710639966E-9;
3,746556085995E-9;
8,09916023490134E-10;
-2,29001965646744E-9;
-6,4487338358333E-9;
-1,17475097213967E-8;
-1,72348397052444E-8;
-2,1410573538243E-8;
-2,29577748536011E-8;
-2,12351899929433E-8;
-1,64266759559567E-8;
-9,45438210752973E-9;
-1,75308602381515E-9;
5,10429608929263E-9;
9,95521544271334E-9;
1,25432231712789E-8;
1,35710306404288E-8;
1,41231969067668E-8;
1,47881765707735E-8;
1,51888608580214E-8;
1,43757282889388E-8;
1,18325631074955E-8;
8,20415633802056E-9;
4,94304398195975E-9;
3,0071424070065E-9;
1,69003770357695E-9;
-1,21164342292495E-9;
-7,67572855222766E-9;
-1,73622140049279E-8;
-2,69455325846776E-8;
-3,17543198854545E-8;
-2,87768677921388E-8;
-1,88728467513938E-8;
-6,39600561980333E-9;
3,64831269851176E-9;
8,80127894758929E-9;
1,03062909139162E-8;
1,1397175010326E-8;
1,4217406151906E-8;
1,8003775125011E-8;
2,00284123240463E-8;
1,84216073986507E-8;
1,42725162661232E-8;
1,09285316460703E-8;
1,08885559926557E-8;
1,29320336088232E-8;
1,22446298571654E-8;
3,96656867516325E-9;
-1,23904790181904E-8;
-3,13035990209115E-8;
-4,41017268161848E-8;
-4,45262252141173E-8;
-3,2937470807149E-8;
-1,59457654263955E-8;
-1,70491743954878E-9;
5,5169330644671E-9;
7,39915353729814E-9;
8,92511977569675E-9;
1,35102988028385E-8;
2,00784214891447E-8;
2,44532976298159E-8;
2,36608781657277E-8;
1,9141267940388E-8;
1,57809001264825E-8;
1,73364885757582E-8;
2,21724896003807E-8;
2,33570247609971E-8;
1,3689139617716E-8;
-8,01077367105941E-9;
-3,44669038384618E-8;
-5,37796233522236E-8;
-5,70574005101196E-8;
-4,42377184046598E-8;
-2,37224195681636E-8;
-6,18135594949251E-9;
2,66492470547235E-9;
4,83360588221314E-9;
6,70113169036957E-9;
1,26990864601715E-8;
2,15036339250309E-8;
2,77876793748853E-8;
2,76936710920556E-8;
2,29355126506469E-8;
1,96174361616713E-8;
2,24919931747586E-8;
2,96021183696646E-8;
3,23461804166449E-8;
2,16623165107193E-8;
-4,19527145333454E-9;
-3,65838338246861E-8;
-6,10773748146005E-8;
-6,67115506882579E-8;
-5,30608272256425E-8;
-2,99022897222498E-8;
-9,85758835993704E-9;
2,17617903050448E-10;
2,5937260199217E-9;
4,7206643577224E-9;
1,18133070281567E-8;
2,23656457083445E-8;
3,01629993142398E-8;
3,06593399534883E-8;
2,57757030121978E-8;
2,25455313327663E-8;
2,64877803119249E-8;
3,54076910116391E-8;
3,94264057316936E-8;
2,80538255111942E-8;
-9,05739617214804E-10;
0,00933339624996151;
0,0226296635424333;
0,016372663457647;
0,00943303649537096;
0,0121693571296883;
0,00702615452081242;
0,00563481527548487;
0,00458271071192095;
0,00084050305997331;
0,0010324032503248;
-0,0105238507979432;
-0,0246216507842572;
-0,0191798415226599;
-0,013986749722108;
-0,0170566921144185;
-0,0128820385825833;
-0,0115759946336162;
-0,0107651535712206;
-0,0078340437318552;
-0,00895309402631183;
-0,00815848673212547;
-0,00825100571398916;
-0,00771144115043318;
-0,00555490618615088;
-0,00432037781135541;
-0,00257441120565296;
-0,00188922047556727;
-0,00127498416460772;
-5,44751695046488E-5;
0,00150203639756634;
0,00367345707583812;
0,00528443395028453;
0,00606545188468974;
0,00601778477504792;
0,00554386489197675;
0,00540376088525216;
0,0056022444814683;
0,00588469110372217;
0,00568701356002519;
0,00475343573466705;
0,0034496901909671;
0,00237135403823832;
0,00204623746824924;
0,00243351534192223;
0,00303905133007898;
0,00334322029787057;
0,00319189107441818;
0,00294869556543397;
0,0031262083281896;
0,00394371645820398;
0,00509945960154902;
0,00596530353314748;
0,00607173901873701;
0,00544163998644836;
0,00454950855862412;
0,00391681116354013;
0,00369048445816622;
0,00355331185505706;
0,00302030371048337;
0,00188360014753223;
0,000424645014855339;
-0,000777076031477616;
-0,00128097840581839;
-0,0011131600037354;
-0,000715618943117718;
-0,000568070554719391;
-0,000795340999352378;
-0,00108318835817072;
-0,000968092097408137;
-0,000255859038445627;
0,000778016884368281;
0,00157344740693346;
0,00170513575364691;
0,00119463381764768;
0,000464807341577027;
-1,98428042012244E-5;
-0,000127838655517408;
-0,000144635732610332;
-0,000503315108619819;
-0,00139062631019281;
-0,00255686100164179;
-0,00348660241178419;
-0,00378930939763048;
-0,00348951134466094;
-0,00298195828771562;
-0,00269410579248675;
-0,00273713547808803;
-0,0028320772124452;
-0,00256764623906099;
-0,0017726119403468;
-0,000693007636136518;
0,00017285773652582;
0,000446887731053137;
0,000147909836382757;
-0,000349366147344831;
-0,000633480158415397;
-0,000588156721885394;
-0,000466269987093436;
-0,000651143211010987;
-0,0013081078471169;
-0,00221675288279357;
-0,0029222584625283;
-0,00308047407849208;
-0,00271370827204899;
-0,00217053117048959;
-0,00182769357088366;
-0,00178266427120285;
-0,00178917837870602;
-0,00148496220180814;
-0,00071969230987435;
0,000289528854714075;
0,00110398793788131;
0,00139125600450081;
0,00116821309518531;
0,000764475124294486;
0,0005417510845386;
0,000602494967109486;
0,000725333397949598;
0,000574657787530917;
5,95837297804854E-6;
-0,000787598596151602;
-0,00140804342389056;
-0,00155459823427559;
-0,00124698107904351;
-0,000789683524438876;
-0,000511222680688535;
-0,000495869597833421;
-0,000528013338734181;
-0,000291382002901734;
0,000344917258322228;
0,00119135497135093;
0,00186563122516743;
0,00207850007102692;
0,00184508692199655;
0,00145259431237347;
0,00121594046063709;
0,00122459806245195;
0,00128681228151348;
0,0011117917074304;
0,000574544495116314;
-0,000157381974740362;
-0,000739391900985008;
-0,000911403044925934;
-0,00069073160082108;
-0,00034063744979538;
-0,000144599982281782;
-0,000174729150597892;
-0,000244307475110163;
-8,02650846371082E-5;
0,000430006772364885;
0,00112266515312011;
0,00166801341375754;
0,00181697521395961;
0,00158281893940101;
0,00121291850201274;
0,000978300171776587;
0,00095610763438976;
0,000981981586653402;
0,000806676229657787;
0,000323166157563513;
-0,000325048552232297;
-0,0008432086788653;
-0,00100922761302126;
-0,000838325164526069;
-0,000555603269629325;
-0,000402905576353753;
-0,00044128256809788;
-0,000511061986698804;
-0,000379438131343861;
4,91199509442852E-5;
0,000634501675976535;
0,00109567535644679;
0,00122065763809771;
0,00102084018781593;
0,000706556572597836;
0,00050805883037371;
0,000490950374346452;
0,000516084159548162;
0,00037250427006059;
-3,03144427973613E-5;
-0,000571157415749123;
-0,00100131807894926;
-0,00113379076015858;
-0,000981875996057139;
-0,000735528469721592;
-0,00059828639726906;
-0,000621099447360248;
-0,000669277441709291;
-0,000547112756576873;
-0,000174771275303155;
0,000329514903226319;
0,000729505732294417;
0,000847327831504746;
0,000692635289693471;
0,000441716794200033;
0,000287371409426943;
0,000284607676959507;
0,0003174146981613;
0,000209962094618552;
-0,000113128342397565;
-0,000551021875418519;
-0,000897128166547565;
-0,000996478377783369;
-0,000860537719278061;
-0,00064705334402606;
-0,000524513678200752;
-0,000534633643927614;
-0,000565539629036515;
-0,000455364412597462;
-0,00013852278765397;
0,00028682385379044;
0,000625394442924086;
0,000730489671907094;
0,000610217834066099;
0,000409866911401779;
0,000288142684039284;
0,000290435557839484;
0,000321826253261072;
0,000238477925809647;
-2,1171151717226E-5;
-0,000374759255674596;
-0,000653896904991214;
-0,00073263504604833;
-0,000620699143876735;
-0,000446556892599877;
-0,000346882487195841;
-0,000355020448739382;
-0,000379780377038016;
-0,000289932633669388;
-3,27399819227251E-5;
0,000311884040927512;
0,000585796566013638;
0,00067054318729295;
