5,70600188658633E-7;
1,21722681375038E-6;
1,44648089098481E-6;
1,22894783244101E-6;
7,74988157611927E-7;
3,67618768235654E-7;
1,65516559630321E-7;
1,24363894226487E-7;
8,26160614265902E-8;
-7,49600300170185E-8;
-3,17824858680248E-7;
-5,12212677351398E-7;
-5,58035289157697E-7;
-4,91968080062858E-7;
-4,60099058157613E-7;
-5,79283082606062E-7;
-8,07334461910373E-7;
-9,41742668154626E-7;
-7,62807875832505E-7;
-2,14782697875967E-7;
5,20282483769157E-7;
1,12231089692909E-6;
1,33802943409889E-6;
1,13957139706189E-6;
7,21425052661623E-7;
3,45621134607397E-7;
1,59223999616225E-7;
1,21424290034701E-7;
8,28645397140728E-8;
-6,30586259773851E-8;
-2,88173480784302E-7;
-4,68842855211974E-7;
-5,12487862906978E-7;
-4,52841878217246E-7;
-4,24728347331709E-7;
-5,36067957235428E-7;
-7,48043815515145E-7;
-8,73869915834342E-7;
-7,10747030105329E-7;
-2,06871659082088E-7;
4,70419766970043E-7;
1,02646154805746E-6;
1,22781068688499E-6;
1,04827040046438E-6;
6,66211915051941E-7;
3,22306860951727E-7;
1,51773838802895E-7;
1,17338566867583E-7;
8,20151242583512E-8;
-5,20396279859839E-8;
-2,59052935805371E-7;
-4,25649947667618E-7;
-4,66869793380834E-7;
-4,13492288208464E-7;
-3,88961003203999E-7;
-4,92160761349815E-7;
-6,87660561816974E-7;
-8,04536660766241E-7;
-6,57057824915191E-7;
-1,97453780277399E-7;
4,21691231694198E-7;
9,3124277995585E-7;
1,11771624494994E-6;
9,56674550435916E-7;
6,10404301604077E-7;
2,98209008152265E-7;
1,43442049950827E-7;
1,12335987681776E-7;
8,02370417647806E-8;
-4,19455585746279E-8;
-2,3081844384146E-7;
-3,83245430586239E-7;
-4,21863459932625E-7;
-3,74531700355985E-7;
-3,53380273394709E-7;
-4,48302186781025E-7;
-6,27223051603962E-7;
-7,34961365048184E-7;
-6,02751657999565E-7;
-1,868775850361E-7;
3,74646836151997E-7;
8,37947830839566E-7;
1,00932541388534E-6;
8,66154430266544E-7;
5,54894395208726E-7;
2,73786973766432E-7;
1,34473511963595E-7;
1,06613561490321E-7;
7,76869257479524E-8;
-3,27883352773993E-8;
-2,03753754460752E-7;
-3,42127841853807E-7;
-3,78029808635596E-7;
-3,36464581441839E-7;
-3,18468470950216E-7;
-4,05114583773149E-7;
-5,67601503570626E-7;
-6,66171790416638E-7;
-5,48691023885556E-7;
-1,75455023813149E-7;
3,29718595007617E-7;
7,47631288657488E-7;
9,03938596996249E-7;
7,77843826416161E-7;
5,00428879384811E-7;
2,49433609946892E-7;
1,25084384327584E-7;
1,00356009731964E-7;
7,45089367334425E-8;
-2,4567201112617E-8;
-1,78072196912141E-7;
-3,02695522000657E-7;
-3,3582048615915E-7;
-2,99698558826927E-7;
-2,84623612745821E-7;
-3,63108626399998E-7;
-5,09515142917887E-7;
-5,990174237681E-7;
-4,95592295899981E-7;
-1,63464183111171E-7;
2,87233990412951E-7;
6,61132561111008E-7;
8,02599362067558E-7;
6,92658793224149E-7;
4,47616052703756E-7;
2,25477277245916E-7;
1,154659500064E-7;
9,3722905524907E-8;
7,08333411234279E-8;
-1,72648385840889E-8;
-1,53938094805981E-7;
-2,65255521022075E-7;
-2,95588873646967E-7;
-2,64559442905416E-7;
-2,52160138841644E-7;
-3,2269620283088E-7;
-4,53545099564918E-7;
-5,34185736385247E-7;
-4,44047362331114E-7;
-1,51147125106928E-7;
2,4743437459474E-7;
5,79097093442034E-7;
7,06119970099454E-7;
6,11318997304179E-7;
3,96942761045963E-7;
2,02189194573541E-7;
1,05780603735419E-7;
8,6857601937215E-8;
6,67808064698357E-8;
-1,08516943093533E-8;
-1,31462148778199E-7;
-2,30035670450733E-7;
-2,57601047108553E-7;
-2,31295026774839E-7;
-2,21324458277734E-7;
-2,84197487285177E-7;
-4,0014767861957E-7;
-4,72222713064156E-7;
-3,94527935797257E-7;
-1,38714117015299E-7;
2,10475744279014E-7;
5,0199818136787E-7;
6,15112092324115E-7;
5,3437691531995E-7;
3,48788322078322E-7;
1,79786477102415E-7;
9,6168308129719E-8;
7,9886336340134E-8;
6,24572446260546E-8;
-5,28833495483783E-9;
-1,10706337673753E-7;
-1,97194158601321E-7;
-2,22051005166418E-7;
-2,00082793315167E-7;
-1,92297840838548E-7;
-2,47856210829237E-7;
-3,49668910056985E-7;
-4,13546517700509E-7;
-3,47406428597156E-7;
-1,26345618424888E-7;
1,76446628379107E-7;
4,301580613172E-7;
5,3000781439241E-7;
4,62228321241593E-7;
3,03433678819438E-7;
1,58442061558219E-7;
8,67447814923423E-8;
7,29135375334508E-8;
5,7957195876181E-8;
-5,30009915739917E-10;
-9,17065537684049E-8;
-1,66825576187495E-7;
-1,89057573274777E-7;
-1,71044567035219E-7;
-1,65205182381645E-7;
-2,13843871438942E-7;
-3,02358324705963E-7;
-3,5845902726034E-7;
-3,0295865432004E-7;
-1,14193348114264E-7;
1,45378675721583E-7;
3,63772141584095E-7;
4,51079540932442E-7;
3,95134198273299E-7;
2,61074500429155E-7;
1,3828361091624E-7;
7,76064396041477E-8;
6,60322079848296E-8;
5,33669070372638E-8;
3,47778330466712E-9;
-7,44572388030584E-8;
-1,38974594371949E-7;
-1,58689460148744E-7;
-1,4424804594261E-7;
-1,40126296629039E-7;
-1,82271493249729E-7;
-2,58377488714353E-7;
-3,07164299586842E-7;
-2,61378345923675E-7;
-1,02383765680119E-7;
1,17250221691831E-7;
3,0292101539479E-7;
3,78470384512475E-7;
3,33243317400472E-7;
2,21830673548705E-7;
1,19405510705738E-7;
6,8834389787794E-8;
5,93190476369453E-8;
4,87564198504892E-8;
6,78782556946739E-9;
-5,89321664714596E-8;
-1,13639059481774E-7;
-1,30962041502832E-7;
-1,19720436060306E-7;
-1,17095724364498E-7;
-1,53197728752865E-7;
-2,17819070039714E-7;
-2,59779575347781E-7;
-2,22791118968639E-7;
-9,10208899596267E-8;
9,20016601752115E-8;
2,47591944342623E-7;
3,12203070123871E-7;
2,76602713953931E-7;
1,85760600908183E-7;
1,01865754098063E-7;
6,04880714822634E-8;
5,28346415242367E-8;
4,41884578819886E-8;
9,46194641896859E-9;
-4,50818312320589E-8;
-9,07832042060691E-8;
-1,05850756452003E-7;
-9,7449242850218E-8;
-9,61138207002222E-8;
-1,26633163481055E-7;
-1,8070567633165E-7;
-2,16345672256302E-7;
-1,87257636253563E-7;
-8,01854088485051E-8;
6,95381037533374E-8;
1,97692613539378E-7;
2,52207889785539E-7;
2,25178460558131E-7;
1,5286785921271E-7;
8,56955527292285E-8;
5,26144780517319E-8;
4,66341927646446E-8;
3,97174674158238E-8;
1,15569638918811E-8;
-3,28381607247292E-8;
-7,03370042330405E-8;
-8,32953283273044E-8;
-7,73889139125586E-8;
-7,71506115675616E-8;
-1,02553975773061E-7;
-1,47011653528566E-7;
-1,76842306481415E-7;
-1,54787320318341E-7;
-6,99415999487064E-8;
4,97378164256256E-8;
1,53066244807355E-7;
1,98334068071991E-7;
1,7886280400988E-7;
1,23106385940862E-7;
7,09048425260506E-8;
4,52464664227357E-8;
4,07533784898839E-8;
3,53868439616159E-8;
1,31321029847594E-8;
-2,21225208238766E-8;
-5,22086719662555E-8;
-6,3209150842168E-8;
-5,9474235831424E-8;
-6,01535818182085E-8;
-8,09026122428115E-8;
-1,16665287507663E-7;
-1,41197409045803E-7;
-1,25347390650672E-7;
-6,03326900349056E-8;
0,00933346650853152;
0,022629843329818;
0,0163728876431288;
0,00943323367198018;
0,0121694881822799;
0,00702622481073654;
0,00563485553417385;
0,00458274527416953;
0,000840531321841579;
0,00103240661743325;
-0,0105238863857282;
-0,024621718768355;
-0,0191799196953108;
-0,0139868211115575;
-0,0170567618346024;
-0,0128821296379201;
-0,0115761239593659;
-0,0107653076705215;
-0,00783417562163197;
-0,00895314730740043;
-0,00815843094508452;
-0,00825085729439292;
-0,00771125441816563;
-0,00555474095414734;
-0,00432026703907691;
-0,00257435070421339;
-0,00188918479512228;
-0,00127495311421587;
-5,44493288592462E-5;
0,00150204143129244;
0,0036734294548615;
0,00528437899766119;
0,00606538798760478;
0,00601772602480291;
0,00554380705114814;
0,00540368482861717;
0,00560213607080474;
0,00588456143912395;
0,00568690158616564;
0,00475338836714358;
0,00344973305558386;
0,00237147405035154;
0,0020463901431133;
0,00243365143704593;
0,00303914351630901;
0,00334327172512607;
0,00319192240279559;
0,0029487232238861;
0,00312623176566839;
0,00394372281292401;
0,00509943904993996;
0,00596526028634561;
0,00607168800014112;
0,00544159267199795;
0,00454946150366793;
0,00391674876757093;
0,00369039513114875;
0,00355320452878125;
0,00302021003508443;
0,0018835584217345;
0,000424676446060602;
-0,000776981536445691;
-0,00128085645346271;
-0,00111305027424675;
-0,000715543656947189;
-0,000568027476797546;
-0,000795313776406909;
-0,00108316394690583;
-0,000968071017068748;
-0,000255851673128756;
0,000778002545135542;
0,0015734145825597;
0,0017050962546434;
0,00119459676293068;
0,000464770001139872;
-1,98928558975622E-5;
-0,000127910708606652;
-0,000144722798322798;
-0,00050339210025621;
-0,0013906626985281;
-0,00255683959014097;
-0,00348653064088138;
-0,00378921492784439;
-0,00348942527915519;
-0,0029818982444034;
-0,00269407033615513;
-0,00273711209573547;
-0,00283205588029201;
-0,00256762744517644;
-0,00177260384431652;
-0,00069301657194281;
0,000172834109699778;
0,000446858445932374;
0,000147881908584423;
-0,000349394812538552;
-0,000633519146710074;
-0,000588213263576957;
-0,000466338822477756;
-0,000651205111994549;
-0,00130813923079845;
-0,00221674015641264;
-0,00292220674588287;
-0,00308040398170781;
-0,00271364326497533;
-0,00217048476488656;
-0,00182766501636265;
-0,00178264445227517;
-0,00178915994484004;
-0,00148494560190149;
-0,000719683726813096;
0,000289524562668913;
0,00110397234606652;
0,00139123569034452;
0,00116819321280681;
0,000764454140415953;
0,000541721927977761;
0,000602452237563659;
0,000725280830525405;
0,00057460943036575;
5,93165000007344E-6;
-0,00078759331288733;
-0,00140800923559684;
-0,00155454955262991;
-0,00124693464544831;
-0,000789649216149073;
-0,000511200329887639;
-0,000495853060225121;
-0,000527997609735659;
-0,000291367493279003;
0,000344926114469642;
0,00119135462235478;
0,00186562258237628;
0,00207848755945164;
0,00184507406074908;
0,00145258006372607;
0,00121591996061164;
0,0012245675220535;
0,00128677410882765;
0,00111175540393249;
0,000574522075962312;
-0,000157382983206348;
-0,000739372871484;
-0,000911372991467934;
-0,00069070139075248;
-0,000340613774329575;
-0,000144583159318466;
-0,000174715612225674;
-0,000244294252257888;
-8,0252546620002E-5;
0,000430015718609405;
0,00112266809915052;
0,00166801070366382;
0,00181696941023245;
0,00158281214357446;
0,00121291010332523;
0,000978287223377074;
0,000956087748898614;
0,000981956026665229;
0,000806650559154356;
0,000323147686090115;
-0,000325054795685437;
-0,00084320260330603;
-0,00100921358713598;
-0,000838308978127362;
-0,000555588845598622;
-0,000402893635679207;
-0,000441271748833049;
-0,000511051064387167;
-0,000379427438938981;
4,91288288168066E-5;
0,000634507326657795;
0,00109567764497794;
0,00122065752991255;
0,00102083856496934;
0,000706553191629313;
0,000508052393831763;
0,000490939705674553;
0,000516069543985272;
0,00037248789017239;
-3,03293245649462E-5;
-0,000571167935634584;
-0,00100132292377231;
-0,00113379034827496;
-0,000981871785123551;
-0,000735522008545217;
-0,000598278729983956;
-0,000621091074901064;
-0,000669268617535128;
-0,000547103778720801;
-0,000174762596200827;
0,000329522728132891;
0,000729512165678042;
0,000847332488122183;
0,000692638020756543;
0,000441717665651679;
0,000287370523789095;
0,000284604887942222;
0,000317409469767806;
0,000209953747457951;
-0,000113139984293425;
-0,000551035805250052;
-0,000897142071900825;
-0,000996489365011347;
-0,000860543596014335;
-0,000647053648897784;
-0,000524509709473749;
-0,000534627453800613;
-0,00056553270261188;
-0,000455357011104845;
-0,000138514411541362;
0,000286833371702589;
0,000625404242413998;
0,000730498244314889;
0,000610224168614341;
0,00040987133230729;
0,000288146461451094;
0,00029043941462659;
0,000321828973135161;
0,000238476440782391;
-2,11798917385247E-5;
-0,000374775820386345;
-0,00065391818048947;
-0,00073265541104881;
-0,000620713385826065;
-0,000446562866434983;
-0,000346881683788202;
-0,000355016188672795;
-0,000379775152429699;
-0,000289926673400743;
-3,27319956440053E-5;
0,000311894827589119;
0,000585809035239994;
0,000670554910153526;
0,000572856392048008;
0,0004099747918249;
0,000309801876156008;
0,000309035716787203;
0,000331797924637032;
0,00026312648431393;
5,39311785792666E-5;
-0,000230064488801755;
-0,000454870229274283;
-0,000520643175063317;
-0,000435510771521746;
-0,000301575653975124;
-0,000226905953317875;
-0,000237356679464043;
-0,000260368354681232;
-0,000192255984419805;
8,19582730854503E-6;
0,000277497349506075;
0,000490874271068299;
0,000555225264704789;
0,000476015755238688;
0,000345343957308006;
0,000263447751054422;
0,000259207121391775;
0,000273771098960892;
0,000218004866649267;
5,39615571748761E-5;
-0,000167523921748749;
-0,000343210389336361;
-0,000396571682470173;
-0,000334298341885788;
-0,000234960074647427;
-0,00018112558195706;
-0,000192015507816185;
-0,000211728274125065;
-0,000161153279215368;
-9,33511098726828E-6;
0,000194887043230312;
0,000356465787199951;
0,00040486300985774;
0,000344405686262016;
0,000244787755702844;
0,000181636162415963;
0,00017685464460852;
0,00018668494101952;
0,000144893552301651;
2,34058269808954E-5;
-0,000140147412095963;
-0,000269768296361139;
-0,000309570531959128;
-0,000264960803877915;
-0,000193685432459101;
-0,000155780506325908;
-0,0001646390365259;
-0,000179117243153884;
-0,000141828506571538;
-3,08647303853855E-5;
0,000117896045662059;
0,000235661866387987;
0,000271804572521833;
0,000229639698142557;
0,000159100140410761;
0,000114114318649655;
0,000110424234654797;
0,000117535668379961;
8,93456935290192E-5;
6,45514499806915E-6;
0,00922833579084611;
0,0224365077750267;
0,0161526152036347;
0,00924303647586147;
0,0120268729303685;
0,0069083636502003;
0,00551058680517959;
0,00444910966747181;
0,00073295677258272;
0,00100034703854297;
-0,00112205754697115;
-0,00184402914418495;
-0,00263377731374608;
-0,00440655869365899;
-0,00478543552714187;
-0,00578325309182871;
-0,00587146392709816;
-0,00610822961961755;
-0,00693599098983593;
-0,00791281542577085;
-0,00940775680823819;
-0,0103542433923679;
-0,0106459697785949;
-0,0102189854860622;
-0,00929162254345318;
-0,00850145360745834;
-0,00790643238873549;
-0,00753899458487907;
-0,00711388743122222;
-0,00644040922328529;
-0,0149727490604913;
-0,0275063533616067;
-0,0207285320902206;
-0,0134397866723527;
-0,0157732154720565;
-0,0100090442672392;
-0,0078222108434188;
-0,00611309983878464;
-0,00216657361396394;
-0,00268445134005153;
-0,00105098593250634;
-0,000633267811561733;
0,000354820464280473;
0,00285625251272064;
0,00423034610573892;
0,00614246920172815;
0,00687085439396882;
0,00752164470304361;
0,00872833710703191;
0,0101855469921332;
0,0122299685057987;
0,0136448085367271;
0,0142135726622389;
0,0139205948736211;
0,0131537041395167;
0,0126794768495933;
0,0124972143446782;
0,0123981692789472;
0,0118451956703344;
0,0105941285136514;
0,00899032731581155;
0,00757906467116915;
0,00685643411387696;
0,0067767919766159;
0,00688003719218085;
0,00669216705937655;
0,00608409257470632;
0,00541560187464624;
0,00517365513609129;
0,00556035138627014;
0,00628086614569218;
0,00673196795299209;
0,00646501970794664;
0,00549880784950546;
0,00428300699449027;
0,00331677730767689;
0,00275206505500069;
0,00230698060768329;
0,00153708215348386;
0,00024676836916899;
-0,00131450372213787;
-0,00262621519033645;
-0,00329484403738983;
-0,00335040524263311;
-0,00319562496733508;
-0,00325898525879283;
-0,0036395073172556;
-0,00403714039694075;
-0,00402423460430452;
-0,00342969233774212;
-0,00251836445214389;
-0,00181576066146069;
-0,00172012770203046;
-0,00221561737563827;
-0,00291399040115272;
-0,0033835743065681;
-0,00349223785510403;
-0,00348697127604058;
-0,00375392829561335;
-0,00446533060801563;
0,0039250917183357;
0,0164940239480346;
0,0100618095020452;
0,00347069026938314;
0,00672968720659163;
0,00191321631534544;
0,000567886684926477;
-0,000459887573744876;
-0,00383140318630612;
-0,00277710131306155;
-0,00387666354546143;
-0,00374901418724341;
-0,00417356472147832;
-0,00605498266464605;
-0,00671506376216896;
-0,00782996638003565;
-0,00776696109503348;
-0,00777617611393816;
-0,00860202268604194;
-0,00993853631513169;
-0,0119895695990131;
-0,0133388039266321;
-0,0136158767174106;
-0,0127786663388502;
-0,0113199534836186;
-0,0101683197031502;
-0,00944783956339462;
-0,00898522244322601;
-0,00820283421881952;
-0,0067939401947009;
-0,0050623208663124;
-0,00353610756792367;
-0,00269370652853806;
-0,00245503875710365;
-0,00232759760354349;
-0,00184859197923009;
-0,0009681452981987;
-0,000167029701118382;
-2,43770060346888E-5;
-0,000736951678329497;
-0,00189243738282265;
-0,00271460868308709;
-0,00262055294154858;
-0,00160409117146881;
-0,000201886107912603;
0,000949624725079387;
0,00159063590826893;
0,00197001661229218;
0,00256449803973067;
0,00362413282393727;
-0,00439363638390263;
-0,0166172855969231;
-0,00990362721988296;
-0,00306261835555237;
-0,00602536936482661;
-0,000822222794196595;
0,000943570904502063;
0,00228119873138421;
0,00571586135451695;
0,00445903426436497;
0,0145586070598067;
0,02748005571125;
0,0216540608873442;
0,0168748423057902;
0,0206958067534398;
0,0170612968738433;
0,0158586136936103;
0,0149290730455573;
0,0120668291873977;
0,0136598446185601;
0,0042353454074809;
-0,00845908816082485;
-0,00274161680950244;
0,00158655702173211;
-0,00292775991254907;
0,000189897306027085;
0,000901305743083691;
0,00128217926544853;
0,00325354447240686;
0,000323282199248338;
-0,00112314309840546;
-0,00316967830995247;
-0,00367326166017747;
-0,00171219643745591;
-0,000427119862066497;
0,00100060440173551;
0,000852620405282305;
0,000602345754630464;
0,00157392451739756;
0,00375411476103212;
0,00701526944377406;
0,00937035296350468;
0,00994306185812472;
0,00875382738500383;
0,00679975769706364;
0,0055090359212776;
0,00510312762239457;
0,0049714644647876;
0,00397328200676419;
0,00159029748376059;
-0,00150157391513148;
-0,00404641230759654;
-0,00501939542520933;
-0,00450788051606818;
-0,00352695250128438;
-0,00314062688113736;
-0,00361411542573054;
-0,00417905230707422;
-0,00376196685599247;
-0,00192834173688396;
0,000659707668336634;
0,00267261268294193;
0,003109316285901;
0,00200812076597841;
0,000352632800537819;
-0,000762228985718403;
-0,0010013644326584;
-0,000987963075080619;
-0,00170121481398089;
-0,00357684006234553;
-0,00607244051869093;
-0,00804879298211503;
-0,00864589115250711;
-0,0079325082602854;
-0,00679604219477253;
-0,00617866083350737;
-0,00629666057284119;
-0,00648861499343228;
-0,00581308722362092;
-0,0038952048621412;
-0,00132105535199224;
0,000748904402736747;
0,00143508303887779;
0,000771616238709669;
-0,000385185465791488;
-0,00108163506210337;
-0,00102331025192709;
-0,000751664834376428;
-0,00111618437211715;
-0,00249650393506865;
-0,00442459925988893;
-0,00591578226695489;
-0,00622865776354898;
-0,00542489114717893;
-0,00427292322808072;
-0,00358561098131744;
-0,00354626576886698;
-0,00358023353015885;
-0,00287329692900281;
-0,00110363882765474;
0,00121953066208976;
0,00309198022734208;
0,00375366455393908;
0,00323437617648713;
0,00227356734165836;
0,00169505144963028;
0,00175527806077865;
0,00199153170259091;
0,00167574526077745;
0,000482215565565412;
-0,00118882888109459;
-0,00249553972873148;
-0,00280518798110331;
-0,0021719271031955;
-0,00125253302110443;
-0,00073910011986165;
-0,000784068286786807;
-0,000893008298422025;
-0,000369499446520541;
0,00105975886809885;
0,00295769417310815;
0,00446571174349046;
0,00493513968192118;
0,0043918921853005;
0,00346708990847671;
0,00286403134807335;
0,0028037471606977;
0,00289616543729156;
0,00252535954077001;
0,00141542169668367;
-9,60717528937435E-5;
-0,00129916174746603;
-0,00166140642704837;
-0,00123009679150781;
-0,000559273586815093;
-0,000230205251019998;
-0,000367583233548336;
-0,000551603090124781;
-0,000194857991521922;
0,00093103861325743;
0,00245535430599741;
0,00365343782905644;
0,00397882608694557;
0,00345339748196293;
0,00260804254862524;
0,00203458707614569;
0,00192079960910662;
0,00194264438017527;
0,00158656080689503;
0,000621902079995805;
-0,000671494002103477;
-0,00170474615836131;
-0,00203746280894707;
-0,00171089853228646;
-0,00118546451388335;
-0,000941621805827598;
-0,00107938886203902;
-0,00124784596935731;
-0,000959668634697316;
-2,76891922739004E-5;
0,00123795008859146;
0,00223491187039696;
0,00250992002379111;
0,00208089829892667;
0,00138691198405559;
0,000917684984579774;
0,000830215237149658;
0,000860240405513617;
0,000587146181838331;
-0,000178644291982402;
0,00812362095236169;
0,0206022506636659;
0,0140979427205013;
0,0074456261853835;
0,0106284229791774;
0,00570168156060361;
0,00421882786758215;
0,00305537515694941;
-0,000421551989813894;
0,000562190497514079;
-0,000597165365165456;
-0,000554802616916532;
-0,00111439798235435;
-0,00317924786648277;
-0,00404919816383938;
-0,00537486057254871;
-0,00550901835813177;
-0,00570122103392888;
-0,0067019748217925;
-0,00820986326787073;
-0,0197631774370288;
-0,0345761374266948;
-0,0287665466573701;
-0,021168312906987;
-0,0226335523574023;
-0,016528239178603;
-0,0145960480034031;
-0,013242197474866;
-0,00885919164496891;
-0,00777101979236324;
-0,00393990313056027;
-0,00173298164532047;
-0,000192988598529854;
0,00167758899242005;
0,00202345248754878;
0,00335227562678848;
0,00420047434018326;
0,00514120823830211;
0,00602625073010332;
0,00621066137953272;
0,0158106950825035;
0,0291677547780282;
0,0232390281702474;
0,0168300362032564;
0,019977383825356;
0,0151322854002286;
0,0137359388120658;
0,0126656204241459;
0,00908240591430617;
0,00966126918871845;
0,00795728032007581;
0,00747253527102213;
0,00660605075522836;
0,00443089240260767;
0,00348642434798175;
0,00196676788820605;
0,00146422294257022;
0,00086674505264083;
-0,000406487331561882;
-0,00197938929573192;
-0,00415622093746252;
-0,00573668568871382;
-0,00650948863300792;
-0,00643177119464665;
-0,00583531358568724;
-0,00546179199803499;
-0,00536877420766266;
-0,0054727519821026;
-0,00535441590782194;
-0,00478261830719539;
-0,0039777488126024;
-0,00328254661946835;
-0,00303104761613082;
-0,00315296646862678;
-0,00330377086854225;
-0,00317835855943585;
-0,00275810750598852;
-0,00239997182803642;
-0,00251004360219573;
-0,00321607069745599;
-0,0135491267698342;
-0,0275826107827816;
-0,0213883435813861;
-0,0138294375993057;
-0,0156391321832503;
-0,00971131091304538;
-0,00787304796552548;
-0,00656237874382673;
-0,0024390923511253;
-0,00195724535914869;
0,00110833835042735;
0,00261363330412481;
0,00376786018274713;
0,00553782510657751;
0,00585177750180227;
0,00700635063534155;
0,00747549454886932;
0,00801775944597604;
0,00871714222901847;
0,00902483584279841;
0,00957982067852443;
0,00979597765812486;
0,00992816254508836;
0,0099165084210867;
0,00965779470119392;
0,0094054615143542;
0,00904957956370762;
0,00875117311492841;
0,00848787890862717;
0,00821363194001046;
0,00794701697176678;
0,0075990141729935;
0,00718954960685889;
0,00669323146515929;
0,00611221147215668;
0,00548562382078207;
0,00484591388481686;
0,00427197617427734;
0,0038078349999142;
0,00345780820257477;
0,00316793484991685;
0,00283895588083557;
0,00239655476514358;
0,00182121234943547;
0,00116818660926127;
0,000527930015579472;
-3,11214136578448E-5;
-0,000492443998883943;
-0,000889157495107421;
-0,00126162174664388;
-0,00162486575024132;
-0,00196671875831003;
-0,00227395674278271;
-0,00256036487406085;
-0,00286070494014363;
-0,0031948309323311;
-0,00353116659505169;
-0,00378845709382201;
-0,00388602618207256;
-0,00380816452594692;
-0,00363265289754949;
-0,00349373248178854;
-0,00350072969273182;
-0,00367002049831749;
-0,00392024947213759;
-0,00413434066759892;
-0,0042402639833526;
-0,00424984292562656;
-0,00422990533540795;
-0,00423491027938014;
-0,00425999823987384;
-0,00425297426364401;
-0,0041713668683359;
-0,00403051805584658;
-0,00389585410457745;
-0,00382192290317739;
-0,00379039549977043;
-0,00370559481072647;
-0,00346085666240789;
-0,00302825312508089;
-0,0024991271675452;
-0,00203705082925004;
-0,00177311097157954;
-0,00172091362181551;
-0,00177566260169599;
-0,00179694057094983;
-0,00170985205525197;
-0,00154652588470355;
-0,00139988776797062;
-0,00133317169973963;
-0,00132299926741922;
-0,00128293683699479;
-0,00114450295596798;
-0,00092270104201384;
-0,000705912340850311;
-0,000575414152518215;
-0,00052286237808212;
-0,000440394860894127;
-0,000199901362237503;
0,000237694381930803;
0,000772187479885023;
0,00121888398077081;
0,00143139011910229;
0,00139948203864967;
0,00124691997608249;
0,00113240777544129;
0,00113288112416668;
0,00120033793153552;
0,00122190362453599;
0,00112840219748732;
0,000958791921699537;
0,000827292403273311;
0,00082350274407919;
0,000933195006107623;
0,00105025941849862;
0,00107234775104327;
0,000999392001902366;
0,000947918865521378;
0,00106213178854087;
0,00138983552328487;
0,00182476546525967;
0,00216706301804955;
0,00225942109811803;
0,00209433444867535;
0,00180936869999713;
0,00157595230820276;
0,00147131472484488;
0,00143452953122218;
0,00133728534801657;
0,00110603064125759;
0,000791787561113024;
0,000529974119907805;
0,000426169976178884;
0,000466596678576083;
0,000531412983446632;
0,000501661939157228;
0,000369771105084825;
0,000257377580092002;
0,000319631836092638;
0,000610528614988241;
0,00101983939812663;
0,00133745641437496;
0,00139875075470231;
0,00119814113822473;
0,000882321746117562;
0,000630486658746918;
0,000518611655022186;
0,000475457769589761;
0,000361270016051186;
9,95233742274983E-5;
-0,000249754117846021;
-0,000535677904210024;
-0,000641102277274118;
-0,000579492222120026;
-0,000480707133386182;
-0,000476144513287783;
-0,000579798979964505;
-0,000667739699607689;
-0,00057808682096935;
-0,000252606715764471;
0,000196597608381012;
0,000553723385947433;
0,000650235240030726;
0,00048209500202955;
0,000201396682980936;
-8,84126505791636E-6;
-7,48488619140878E-5;
-7,55145543337617E-5;
-0,000158199266397837;
-0,000400854996557726;
-0,000736809786350546;
-0,0010044100258349;
-0,00107848723159527;
-0,000971997144153213;
-0,000821255102381231;
-0,000766127056356806;
-0,000825735344573267;
-0,000875960040273087;
-0,000751543951774077;
-0,000391443849895249;
9,23943261942474E-5;
0,000482613534031283;
0,000609923694518834;
0,000471713643383957;
0,000222489945798191;
4,59392348862025E-5;
1,30454065809146E-5;
3,97827521487161E-5;
-2,53324916780753E-5;
-0,000260215450478581;
-0,00059348780347124;
-0,000856692858622289;
-0,000919613042155918;
-0,000794442531571987;
-0,000620792859717195;
-0,000543477236637263;
-0,00058552550908222;
-0,000624342700528798;
-0,000494110855721358;
-0,000132187322896226;
0,00035135462264066;
0,000741101403063658;
0,000869658824664082;
0,000735717833069992;
0,000493645614949347;
0,000325119372004457;
0,000297857047637565;
0,00032483168691325;
0,000253365185133853;
6,75205720896636E-6;
-0,000340670878905727;
-0,000617126262843059;
-0,000689979611300515;
-0,000570537627385258;
-0,000399092491325746;
-0,0003224646986519;
-0,000366595033542989;
-0,000411910560477905;
-0,000294485845793446;
4,87954228811052E-5;
0,000511051596566559;
0,000881623347563215;
0,000997116074430616;
0,00085731240080598;
0,000614218474610898;
0,00044520153606846;
0,000414271068071311;
0,000433143877043707;
0,000350332453777774;
9,12240748660486E-5;
-0,000268471096951279;
-0,000556696271909;
-0,000640715216893458;
-0,000530929018757795;
-0,000366181955310703;
-0,00029287833074674;
-0,000339056532693518;
-0,000389435572744052;
-0,000284067180096828;
3,96336062216867E-5;
0,000478982855669013;
0,000830312802445475;
0,000935889829076425;
0,000796358509210756;
0,000559503160166968;
0,000396484405471253;
0,000367255754897327;
0,000383729572601372;
0,000297565371091276;
3,6933441443518E-5;
-0,000322445325567561;
-0,000610798511393147;
-0,000697239823096885;
-0,000591272276850764;
-0,000428537425880913;
-0,000353002879393599;
-0,000394092502833282;
-0,000441815438020892;
-0,000341884213421373;
-3,3073496460776E-5;
0,000386919851835602;
0,000723202714651297;
0,000825026026920684;
0,000693708378009696;
0,000471333189331595;
0,000321374054588678;
0,000299514154636562;
0,000319093159955792;
0,000236531131791324;
-1,66580874471193E-5;
-0,000365860229061062;
-0,000645677494171906;
-0,000728658377880084;
-0,000623404914947699;
-0,000460910014027012;
-0,000381023826188705;
-0,000413914266973995;
-0,00045561496209634;
-0,000358803330297223;
-6,42648843767268E-5;
0,000335901881560206;
0,00065696795904984;
0,000756200584942645;
0,00063545006970535;
0,000429966649319922;
0,000294430212269807;
0,000280155809770026;
0,000302940301416687;
0,000225265796089037;
-1,75698503210231E-5;
-0,000352959811029946;
-0,000621550933752838;
-0,000700589180019805;
-0,000597773100690501;
-0,000438290892279979;
-0,000356514685799091;
-0,000382795979569994;
-0,000419709179656472;
-0,000327878259315338;
-5,06080275137245E-5;
0,000326039223887454;
0,0006285222997968;
0,000722880572978122;
0,000611376926349026;
0,000421585421912443;
0,000298596895731157;
0,000289341860992975;
0,00031290270832513;
0,000238827379781112;
6,51370897725254E-6;
-0,000314162970374693;
-0,000571205522889251;
-0,000647549047454164;
-0,000550003154361003;
-0,000397070928005832;
-0,000316589586408802;
-0,000338625134575863;
-0,000372634008497928;
-0,000287898712654109;
-3,06387458281194E-5;
0,000319392862018444;
0,000600532705429383;
0,000688094046265079;
0,00058464271089378;
0,000409477079833143;
0,000297565593785345;
0,000291496775078165;
0,000314277476289045;
0,000243253455951027;
2,21222504687899E-5;
-0,000282544642417039;
-0,000527104316582839;
-0,000600936820631537;
-0,000509996069501051;
-0,000365467199144374;
-0,000287868592506866;
-0,000306597852991839;
-0,000338185494900038;
-0,000261050070425203;
-2,4621833593055E-5;
0,000297786089404776;
0,000556788628515651;
0,000637255020761052;
0,00054195469170384;
0,000381524538147888;
0,000280505979684447;
0,000277238975493926;
0,000299128470411184;
0,000231814677960144;
2,33974225815881E-5;
-0,000263289383071624;
-0,000493675061757507;
-0,000564128123445457;
-0,000479791087111552;
-0,000344110424640084;
-0,000269737231323579;
-0,000285090997891593;
-0,000313836073327843;
-0,000243796638654015;
-2,78174595840928E-5;
0,000267242653287941;
0,000504434227254234;
0,000578281318663065;
0,000491672315565837;
0,000346385963298245;
0,000256432606806286;
0,000256042996852587;
0,000277353175045012;
0,00021459471534911;
2,02937947424737E-5;
-0,000246760531384889;
-0,00046153874080591;
-0,000527751731919189;
-0,000449779640096479;
-0,000323089505328321;
-0,000252118282297843;
-0,000264060118947441;
-0,000289658200725193;
-0,000226230937376705;
-3,01582669985369E-5;
0,000238074900686398;
0,00045390841748397;
0,000521467285756915;
0,000443689647069278;
0,000313462358547489;
0,00023433170476873;
0,000236596546703635;
0,000257335833281981;
0,000199499021168305;
1,99975432392486E-5;
-0,000226620622524686;
-0,000425120127963134;
-0,000486743783942822;
-0,000415161184856397;
-0,000297773076004121;
-0,000230629142833407;
-0,000239506990042497;
-0,000262078622535811;
-0,00020509275246976;
-2,85141877273652E-5;
0,000213386935692378;
0,000408223141286217;
0,000469538587447452;
0,000400264904687549;
0,000284499195848407;
0,000215531937449138;
0,000219935651689646;
0,000239838429866687;
0,00018688850473787;
2,22862500339113E-5;
-0,000203763130013239;
-0,000385888316422697;
-0,000442914411705912;
-0,000377855113555824;
-0,000270089347606157;
-0,000207255689389783;
-0,000213575002371426;
-0,000233422026446743;
-0,000182786359078263;
-2,52084256726774E-5;
0,000191032515242162;
0,000365364245849262;
0,000420462517750595;
0,000359206503406118;
0,000257116705121718;
0,000197550143342669;
0,00020357816269485;
0,000222393320907344;
0,000174200874044622;
2,43479576732011E-5;
-0,00018132505726223;
-0,000347227245148241;
-0,000399699898194971;
-0,000341157688690242;
-0,000243112150153163;
-0,000184892875282776;
-0,000189069188447707;
-0,000206432650836872;
-0,000161922446394751;
-2,25965220860404E-5;
0,000168981526496678;
0,000323584298397986;
0,000372646759941989;
0,000318958583331743;
0,00022976637360524;
0,000178906714078572;
0,000186188011821829;
0,000203806222869267;
0,000160281177042007;
2,49281818298933E-5;
-0,000160732343602901;
-0,000310678890379014;
-0,00035860610821548;
-0,000306387330168558;
-0,000217910734716957;
-0,000164402872394851;
-0,000166725939585723;
-0,000181756241812791;
-0,000143009885617918;
-2,09638273251584E-5;
0,000147220161221717;
0,000283101514946356;
0,000326436645638843;
0,000279896869149789;
0,000202828416914398;
0,000160030719949852;
0,000168295392560836;
0,000184698038989271;
0,00014575014775272;
2,45289978988058E-5;
-0,00014166436880401;
-0,000276062972078831;
-0,000319472932163987;
-0,000273283324261023;
-0,000194074091984064;
-0,000145258278190997;
-0,000145968693201255;
-0,000158800162731557;
-0,000125409964682891;
-1,95627414061423E-5;
0,000126640284816962;
0,000244922473340079;
0,000282875675679518;
0,000243031398592781;
0,000177263092359991;
0,000141868375918199;
0,000150871530612026;
0,000166053619853923;
0,000131532362156089;
2,39207871564341E-5;
-0,000123553595243466;
-0,000242980840134947;
-0,00028197375829284;
-0,000241492696469017;
-0,000171179247125282;
-0,000126988186002304;
-0,000126328864479327;
-0,000137125043638435;
-0,000108692804834604;
-1,79274579292303E-5;
0,00010777112994872;
0,000209621998109492;
0,000242533008718742;
0,000208880803844717;
0,000153532632955835;
0,000124855474753813;
0,00013435492319257;
0,00014830360180087;
0,000117993201784329;
2,33326671956469E-5;
-0,000106342476031878;
-0,000211518483499119;
-0,000246261832169887;
-0,000211157532662161;
-0,000149319241804537;
-0,000109648645896772;
-0,000107861193882185;
-0,000116806199441479;
-9,29441652043129E-5;
-1,61248176619542E-5;
9,05842888320273E-5;
0,000177201239986776;
0,000205409825106412;
0,000177422140394773;
0,000131591546611913;
0,000108947175593084;
0,000118720251614149;
0,000131430833159169;
0,000105079258473344;
2,26224829187176E-5;
-9,02873182817571E-5;
-0,000182025477892661;
-0,000212723828610599;
-0,000182642887960282;
-0,000128806803669291;
-9,35053887045586E-5;
-9,08092070679536E-5;
-9,80840943916711E-5;
-7,84012805768665E-5;
-1,43750896953035E-5;
7,48872846538235E-5;
0,000147492574004547;
0,000171350816963145;
0,000148504363127923;
0,000111299299269901;
9,4029200431254E-5;
0,000103888072806966;
0,000115377506025217;
9,27201456412805E-5;
2,16697861569938E-5;
-7,55765062911845E-5;
-0,000154744625359923;
-0,000181619493902753;
-0,000156185021478321;
-0,000109831335581183;
-7,87013972825239E-5;
-7,52855302005426E-5;
-8,10582614060513E-5;
-6,51593633119089E-5;
-1,27692643339044E-5;
6,05962618209633E-5;
0,000120420949933911;
0,000140291243115606;
0,000122078299230014;
9,26321616734209E-5;
8,01123812952657E-5;
8,99035241014518E-5;
0,000100208461951827;
8,09752462495306E-5;
2,05041923626232E-5;
-6,22214161200209E-5;
-0,000129720987124753;
-0,000153006079249141;
-0,0001318286120501;
-9,24078191186986E-5;
-6,52179890981607E-5;
-6,12460033629796E-5;
-6,56741565005482E-5;
-5,3169240066794E-5;
-1,12748123212429E-5;
4,77237551057092E-5;
9,59848211614768E-5;
0,000112229176621373;
9,81584469330374E-5;
7,56342908169749E-5;
6,727447441196E-5;
7,68708128135141E-5;
8,60392855195311E-5;
6,99547969028429E-5;
1,92181729240476E-5;
-5,01523237210551E-5;
-0,000106905086450942;
-0,000126846073716752;
-0,000109536353870259;
-7,64870118716983E-5;
-5,29859594714731E-5;
-4,86024969562137E-5;
-5,18373297357951E-5;
-4,23511083074031E-5;
-9,84665023533353E-6;
3,62719558720411E-5;
7,41532391747452E-5;
8,71245868885419E-5;
7,67222478846172E-5;
6,0316796535434E-5;
5,55601036546424E-5;
6,48555462601165E-5;
7,29415951634558E-5;
5,97272485334463E-5;
1,78749509682153E-5;
-3,9310703498642E-5;
-8,62444641579304E-5;
-0,000103095796610556;
-8,92724898252508E-5;
-6,203318753778E-5;
-4,19581653959452E-5;
-3,72913930188607E-5;
-3,9477969684739E-5;
-3,26539205539354E-5;
-8,47961303060459E-6;
2,61880832067155E-5;
5,48282951965779E-5;
6,48668010808942E-5;
5,76805966168145E-5;
4,6630556129195E-5;
4,49565272418239E-5;
5,38644549426181E-5;
6,09268532672822E-5;
5,03060137186403E-5;
1,64964550911834E-5;
-2,96610555824456E-5;
-6,76947087426589E-5;
-8,17139125528898E-5;
-7,10071619191938E-5;
-4,90238337485279E-5;
-3,21054405596899E-5;
-2,72669172662294E-5;
-2,85419908986837E-5;
-2,40433564121498E-5;
-7,19191116845615E-6;
1,73860961621647E-5;
3,78711746987745E-5;
4,53029455827441E-5;
4,09067671369724E-5;
3,44948659885793E-5;
3,54224933855205E-5;
4,38752957201099E-5;
4,99773700023505E-5;
4,16804263151557E-5;
1,5092621206554E-5;
-2,11641694820432E-5;
-5,11948088007151E-5;
-6,26372950471473E-5;
-5,46912521650575E-5;
-3,7423053702793E-5;
-2,33892729387006E-5;
-1,8474111633187E-5;
-1,89646173584556E-5;
-1,64751909797846E-5;
-5,99696992878184E-6;
9,77703583203394E-6;
2,31340131084827E-5;
2,82696467030919E-5;
2,62663538396586E-5;
2,38250523818813E-5;
2,69140628493037E-5;
3,48617024196657E-5;
4,00702973962838E-5;
3,38379739733907E-5;
1,36805026931111E-5;
-1,37618897332005E-5;
-3,66552290413817E-5;
-4,57708756075198E-5;
-4,0246547164897E-5;
-2,71715090138455E-5;
-1,57520582846913E-5;
-1,08402528289195E-5;
-1,0663120964034E-5;
-9,88854210570538E-6;
-4,89595567435472E-6;
3,27791394662022E-6;
1,04697066024569E-5;
1,36023878607708E-5;
1,36248670205821E-5;
1,45378826374522E-5;
1,93883829630716E-5;
2,67961389949066E-5;
3,11799372760941E-5;
2,67651738270619E-5;
1,22825476308828E-5;
-7,38200898999812E-6;
-2,39654189800816E-5;
-3,09963647982387E-5;
-2,75742817467221E-5;
-1,81942709157537E-5;
-9,12469399833513E-6;
-4,28287552529518E-6;
-3,54542192504574E-6;
-4,21430596852735E-6;
-3,88491712124797E-6;
-2,19353166448723E-6;
-2,71844091765422E-7;
1,13205844572234E-6;
2,84344562457173E-6;
6,54610634710239E-6;
1,27975643361204E-5;
1,96438078419804E-5;
2,32718144862867E-5;
2,04411180760549E-5;
1,09185838259569E-5;
-1,94838620639872E-6;
-1,30055743221299E-5;
-1,81844016893368E-5;
-1,65664661436122E-5;
-1,04108722010475E-5;
-3,43573334134883E-6;
1,28132099627157E-6;
2,4811070551688E-6;
6,16743668796569E-7;
-2,96125912191011E-6;
-6,72315167135027E-6;
-9,24625172679342E-6;
-9,3168228802614E-6;
-6,22317216626247E-6;
-2,44158880078222E-7;
7,08588853282257E-6;
1,33602761053858E-5;
1,63007913441504E-5;
1,4835425581318E-5;
9,60265159894686E-6;
2,61426393011348E-6;
-3,65264114000025E-6;
-7,20070708025607E-6;
-7,11114833921566E-6;
-3,73930439515313E-6;
1,3855225381643E-6;
5,93371370632757E-6;
7,50703845258356E-6;
4,67199582946468E-6;
-2,12425325097115E-6;
-1,03990388843528E-5;
-1,66117940244517E-5;
-1,79226609378894E-5;
-1,37234746215868E-5;
-5,93078549141317E-6;
2,1922640325222E-6;
7,89421409661047E-6;
1,02141257143786E-5;
9,91101826958668E-6;
8,34467297584386E-6;
6,38048967163338E-6;
4,21856809710776E-6;
2,09248080759531E-6;
9,06732088977935E-7;
1,90405899050146E-6;
5,4097270087995E-6;
9,75456562911187E-6;
1,16216585542762E-5;
8,0181307446523E-6;
-1,37291737604167E-6;
-1,33080491330856E-5;
-2,25248384180441E-5;
-2,48618764718271E-5;
-1,98046539198743E-5;
-1,06117470467147E-5;
-1,94622443237821E-6;
3,1910255932403E-6;
4,95520827618822E-6;
5,62746002681296E-6;
7,1526496306612E-6;
9,42477437880011E-6;
1,07348180876644E-5;
9,8354208763722E-6;
7,60471913528147E-6;
6,60449329855266E-6;
8,70793103706008E-6;
1,28234542938937E-5;
1,49132357211334E-5;
1,07215576007295E-5;
-7,0484195739764E-7;
-1,55335880572128E-5;
-2,71368221940023E-5;
-3,03056948956641E-5;
-2,46098040178577E-5;
-1,43828818490584E-5;
-5,39237522058388E-6;
-8,0518260363713E-7;
4,65574563042221E-7;
1,94257136772255E-6;
6,03328010383227E-6;
1,18208343141684E-5;
1,60226694886188E-5;
1,61687007432518E-5;
1,3100954715025E-5;
1,04475842826849E-5;
1,13506063535557E-5;
1,5218305736243E-5;
1,74679389612998E-5;
1,28474863357571E-5;
-1,16516399614087E-7;
-1,71550718054816E-5;
-3,05930176801139E-5;
-3,44187331810239E-5;
-2,82767814421399E-5;
-1,73371642450962E-5;
-8,20834530076781E-6;
-4,15097284673188E-6;
-3,31436710880552E-6;
-1,1871258119474E-6;
4,99159974777008E-6;
1,36401857292403E-5;
2,02061932063594E-5;
2,12306554044287E-5;
1,75118815312537E-5;
1,35174683734357E-5;
1,34062522646422E-5;
1,70140645748691E-5;
1,93684692894421E-5;
1,44587261929285E-5;
3,95992236206507E-7;
-1,82478858598833E-5;
-3,30319035627786E-5;
-3,73581596974982E-5;
-3,09375359374317E-5;
-1,95642983086634E-5;
-1,04553133031644E-5;
-6,90310939174004E-6;
-6,44474525259197E-6;
-3,80601367460432E-6;
4,03074752568803E-6;
1,49510614374184E-5;
2,34051925858806E-5;
2,5155381926952E-5;
2,09505196690652E-5;
1,58955515590108E-5;
1,49404546960523E-5;
1,82818659027303E-5;
2,06932278511719E-5;
1,5614982555595E-5;
8,36748757191445E-7;
-1,8883095037839E-5;
-3,45844022777258E-5;
-3,92727680266249E-5;
-3,27172947853081E-5;
-2,11500748620713E-5;
-1,21928731407374E-5;
-9,11781075673287E-6;
-8,9853627473121E-6;
-5,95867703179841E-6;
3,15215946204457E-6;
1,58179106052197E-5;
2,57341459723809E-5;
2,80714959649148E-5;
2,35254179195767E-5;
1,76598320609198E-5;
1,60154848059023E-5;
1,90886992846424E-5;
2,15159647271859E-5;
1,63726093439075E-5;
1,20998737675118E-6;
-1,9126999504226E-5;
-3,53730947585733E-5;
-4,0302069683474E-5;
-3,37337244578987E-5;
-2,21756534232337E-5;
-1,34783138209924E-5;
-1,08499120834819E-5;
-1,09947810392134E-5;
-7,68911277640674E-6;
2,35593068045152E-6;
1,63011826314721E-5;
2,73015312318163E-5;
3,01012809042024E-5;
2,53399343423771E-5;
1,88844638517013E-5;
1,66900820016391E-5;
1,94972742343275E-5;
2,19056404014562E-5;
1,67844984828749E-5;
1,52018259916093E-6;
-1,90407964985745E-5;
-3,5511668423005E-5;
-4,05756632501012E-5;
-3,40963589234659E-5;
-2,27170503406277E-5;
-1,43660834472764E-5;
-1,21522280545727E-5;
-1,2529611775353E-5;
-9,04014629945699E-6;
1,64107558542917E-6;
1,6457156668087E-5;
2,8209281427986E-5;
3,13600137137343E-5;
2,6491660535023E-5;
1,96393701722434E-5;
1,70192390991529E-5;
1,9565866257912E-5;
2,1926255171016E-5;
1,68999357678086E-5;
1,77199541100363E-6;
-1,86804879175586E-5;
-3,51046862625782E-5;
-4,02129548609309E-5;
-3,39063221731E-5;
-2,2844868973525E-5;
-1,49074770497241E-5;
-1,30751364612626E-5;
-1,36440415418584E-5;
-1,00530332531834E-5;
1,00568098112559E-6;
1,63377636686233E-5;
2,85523375285699E-5;
3,19553929579993E-5;
2,70719091606099E-5;
1,99899035709941E-5;
1,70540001889489E-5;
1,93481851112069E-5;
2,16367298116311E-5;
1,6764464348388E-5;
1,97016849555838E-6;
-1,80969259058204E-5;
-3,42475831145912E-5;
-3,93231154004957E-5;
-3,32562768791543E-5;
-2,26242127980274E-5;
-1,51504532829986E-5;
-1,36662957699591E-5;
-1,43894974135627E-5;
-1,07671761562507E-5;
4,47025502629293E-7;
1,59904875555383E-5;
2,84183671843688E-5;
3,19871899601629E-5;
2,71653891698954E-5;
1,99966105835341E-5;
1,68413456471318E-5;
1,8893318082926E-5;
2,10908584016779E-5;
1,64198264611806E-5;
2,11943212484672E-6;
-1,73359205267274E-5;
-3,3026776545963E-5;
-3,80051866732093E-5;
-3,2230477711719E-5;
-2,21146563839186E-5;
-1,51395062114104E-5;
-1,39704226675321E-5;
-1,48143877286225E-5;
-1,12198912186029E-5;
-3,82820216684547E-8;
1,54583718365819E-5;
2,78876589595694E-5;
3,1547068175641E-5;
2,68500450880786E-5;
1,9715144097423E-5;
1,64241712527032E-5;
1,82457855004249E-5;
2,03373805504582E-5;
1,59039963758839E-5;
2,22446346910266E-6;
-1,6438394262829E-5;
-3,15198817897199E-5;
-3,63482879515319E-5;
-3,09049201318155E-5;
-2,13702798027839E-5;
-1,49155925479553E-5;
-1,40291402663017E-5;
-1,49638956629609E-5;
-1,14462156462764E-5;
-4,54152376375616E-7;
1,47801190985328E-5;
2,7033155888159E-5;
3,07185877029469E-5;
2,61970416358874E-5;
1,9196264851946E-5;
1,58413546993094E-5;
1,74456523813703E-5;
1,94201222720621E-5;
1,52512629373793E-5;
2,28983818246228E-6;
-1,54405498625435E-5;
-2,97959958959712E-5;
-3,44319298006056E-5;
-2,93475724741168E-5;
-2,04397792611212E-5;
-1,45161039357807E-5;
-1,38808635984435E-5;
-1,487985217388E-5;
-1,14787728434842E-5;
-8,0488380776987E-7;
1,39902234338116E-5;
2,59205979034415E-5;
2,9577315714769E-5;
2,5270843972392E-5;
1,84859116010164E-5;
1,51278566623584E-5;
1,65287006559215E-5;
1,83781766438297E-5;
1,4492352142278E-5;
2,32000897771601E-6;
0,00931905993866246;
0,0226018137493176;
0,0163404108607566;
0,00940547748500645;
0,0121500251556104;
0,007012192420009;
0,00562125635068917;
0,00456810936703978;
0,000829152380487795;
0,00103129733013597;
-0,00117732033230236;
-0,00196734391660507;
-0,00277894590188604;
-0,00452955194351346;
-0,0048696996727913;
-0,00584158585097468;
-0,00592569067224071;
-0,00616524221011501;
-0,0069799220922731;
-0,00791838428381185;
-0,00936215456632815;
-0,0102688220888227;
-0,0105485927209131;
-0,0101342943615412;
-0,00922585398473667;
-0,00844361925559237;
-0,00784353503243691;
-0,00747163292701584;
-0,00705913394696105;
-0,00642000643055921;
-0,00566326004713739;
-0,00493533764434967;
-0,00442646139508313;
-0,00406794316634611;
-0,00364717464528279;
-0,00301313751599207;
-0,00221376541335738;
-0,0015567748548626;
-0,00134831447456934;
-0,00166295388264096;
-0,00223786693239458;
-0,00261095571128377;
-0,00243454837224173;
-0,00168103590961393;
-0,00064167560924285;
0,000304083838927951;
0,000951133569430898;
0,00136227509861382;
0,00175442894410784;
0,00227694926614325;
0,00288494838666206;
0,00339979798012925;
0,00368985966247035;
0,00380582660991541;
0,00394034362558942;
0,00424594525386156;
0,00466747756053214;
0,00494395824774459;
0,00479723168266041;
0,0041642970737671;
0,00328737526008728;
0,00257936785021178;
0,00235859641842461;
0,00264943625485737;
0,00319351787510289;
0,00365360647244706;
0,00384689443206713;
0,00383301850457027;
0,00380706819185669;
0,00390453909535946;
0,00408665707651088;
0,00419458626838685;
0,0041122776581231;
0,00388583806529297;
0,00368843869994102;
0,00365705694826837;
0,00374315291924102;
0,00371484852862948;
0,00332484237896291;
0,00251772616202916;
0,00150964916948049;
0,000668292827884362;
0,000276796614342492;
0,000356550410746653;
0,000677687062562465;
0,000940479277962032;
0,000982599894947949;
0,000856999641313566;
0,000736601552350925;
0,000741190371726094;
0,000835839785270306;
0,000879230727342671;
0,000768071816615564;
0,000542731096319724;
0,000355993318946225;
0,000328487863215691;
0,000416721426934666;
0,000415224214052079;
0,000105070726029084;
-0,0005630953985421;
-0,0107324606033781;
-0,0247088017973821;
-0,0187271964248574;
-0,0116403817652906;
-0,0140102872112538;
-0,00854601896662962;
-0,0070223159351307;
-0,00598041205981966;
-0,00223945956620678;
-0,00231907616112553;
9,81247743653986E-5;
0,00105130251718488;
0,00188419504499596;
0,00354939751493696;
0,00383613428135859;
0,00489747003237042;
0,00517665092559451;
0,00553261548140428;
0,00618737422918309;
0,00664375963462123;
0,00745283233370026;
0,00786173037905215;
0,00800295843347796;
0,00782437911344972;
0,00734285236732763;
0,00694182241558323;
0,00655030873698782;
0,00625787006416226;
0,00593294830695307;
0,00548282715948028;
0,00498599407115431;
0,00447383875692051;
0,0040522623472972;
0,00368307980853662;
0,00327442824204067;
0,00277189827517054;
0,0021913094169286;
0,00168054166532086;
0,00137433963657184;
0,0013076391317257;
0,00136463079982376;
0,0013340270583931;
0,00106048714138264;
0,000529233618254797;
-0,000126867952470967;
-0,000732961729601861;
-0,00119316095845744;
-0,00153216749687604;
-0,0018481104389295;
-0,00220977412592967;
-0,00259875136556988;
-0,00293577865629163;
-0,0031619283203185;
-0,00330150517769148;
-0,00344295722830017;
-0,00365534313468493;
-0,00391068986932622;
-0,00408490691375002;
-0,00404663212599155;
-0,00376662060744004;
-0,00336094294030457;
-0,00302764928217742;
-0,00292051389737829;
-0,00305304101234422;
-0,00330225377249295;
-0,00350546890151439;
-0,0035726829261157;
-0,00353052215271748;
-0,00347243659042523;
-0,00346520417224623;
-0,00349279401500175;
-0,00348120632961913;
-0,00337638460215843;
-0,00320193557993259;
-0,00304226371167829;
-0,00296314882933107;
-0,00293879384956597;
-0,00285311787606092;
-0,00258298820494045;
-0,00210144961855107;
-0,00151790291229191;
-0,00101849898641632;
-0,000747581995699159;
-0,000717585949562112;
-0,000812945525633711;
-0,000880935810115841;
-0,000837073110514766;
-0,000706161013829464;
-0,000575436191288292;
-0,000507005362997955;
-0,000485351626626098;
-0,000440725741853455;
-0,000322081589690098;
-0,000150987074702119;
-5,777421628076E-6;
5,26939189097028E-5;
4,91111425024926E-5;
9,23728772915836E-5;
0,000297867424688501;
0,000691248786661606;
0,0011711371320796;
0,00156480256014903;
0,00173861670246227;
0,0016818177884869;
0,0015026784821573;
0,00134387371247821;
0,00128448580049093;
0,00130198556465901;
0,00131590563378019;
0,00126920755966892;
0,00117694434843567;
0,00110444024628917;
0,00109957747252323;
0,00114284603082947;
0,00116211808878066;
0,00110148592455511;
0,000984246517552551;
0,000911578013385609;
0,00099055187831155;
0,00124516679778281;
0,00158199169269905;
0,00184176046802029;
0,00190144324112191;
0,00175150193066849;
0,00149218959933137;
0,00125534398442865;
0,00111401111882733;
0,00104750756844476;
0,00098179761794758;
0,000864498899972654;
0,000709638601023846;
0,000577469137221971;
0,00051210784133356;
0,000495624130082732;
0,000461701630580925;
0,000358952338238001;
0,000208749872390258;
0,0001039302131152;
0,000142650128298781;
0,000346781656017522;
0,000630510771531546;
0,000847759839963615;
0,000885768597641819;
0,000735788921615853;
0,000489554516620714;
0,000267588442554763;
0,000136510725066422;
7,71816291536629E-5;
2,17327227586101E-5;
-7,78375195465118E-5;
-0,000208822209764666;
-0,000316326366819766;
-0,000360243964197275;
-0,000357129079419751;
-0,000367664742832939;
-0,000438888632675881;
-0,000551505953969891;
-0,000621146423839912;
-0,000558654470770991;
-0,000344355781139776;
-5,65353717911651E-5;
0,000171802361905936;
0,000238053735524729;
0,000134199477927489;
-5,65274506726857E-5;
-0,000224842415147781;
-0,000310474854024185;
-0,000330989072259053;
-0,000348093262189863;
-0,000405402804034856;
-0,00049146515390767;
-0,000556617965554988;
-0,000564636201640959;
-0,000530616803275047;
-0,000509578127535633;
-0,000544159390492664;
-0,000617001865417854;
-0,000651950199638639;
-0,000568572166311512;
-0,000349210386624943;
-6,46060059428234E-5;
0,000165211120741864;
0,000247728358628229;
0,000175757983479706;
2,43225675773776E-5;
-0,000108166541174544;
-0,000167506376446926;
-0,000169568233830669;
-0,000169892786182604;
-0,000207677264782551;
-0,000272570548954438;
-0,00031989477057191;
-0,000317083976651631;
-0,000277685580893645;
-0,000251073011501701;
-0,000275484046867957;
-0,000335331928323807;
-0,000362340699304255;
-0,000284445502222413;
-8,58369082596964E-5;
0,000170172060095971;
0,000376230178246954;
0,00044968332981205;
0,000384211269010456;
0,000246943392527171;
0,000125829553240063;
6,92717750321829E-5;
6,31037558685839E-5;
5,78033007799301E-5;
1,84848157465779E-5;
-4,5530790022193E-5;
-9,43462456468837E-5;
-9,88947454113177E-5;
-7,12000871161253E-5;
-5,51711537668582E-5;
-8,47886123191802E-5;
-0,000146158764638381;
-0,000178575338870362;
-0,000118007779264967;
4,95875089566749E-5;
0,000268036089686257;
0,000442150775877197;
0,000498717161131866;
0,000432220109224949;
0,000302196851478836;
0,000186554138027505;
0,000128123961828469;
0,000114356289646962;
0,000101464215281966;
5,86537827233501E-5;
-5,77548039329144E-6;
-5,65301495529923E-5;
-6,79184471093567E-5;
-5,05415888483217E-5;
-4,31278374420568E-5;
-7,56335331146632E-5;
-0,000135814682947812;
-0,000170210311500343;
-0,000122470790844173;
1,97373220104988E-5;
0,000206997592459441;
0,00035564926980577;
0,000401403660405044;
0,000339463468327061;
0,000222114923036933;
0,000117698930253891;
6,37355264997368E-5;
4,91803235777751E-5;
3,56517887491965E-5;
-3,80259932380739E-6;
-6,18867132026955E-5;
-0,000107698294695738;
-0,000118767556998081;
-0,000104375670918501;
-9,83778289999818E-5;
-0,000126951744700628;
-0,000179433687281496;
-0,000209220926273101;
-0,000167225981303733;
-4,27410015882572E-5;
0,000121174205018124;
0,000251701840876328;
0,000292938385433576;
0,000240741090684262;
0,00014055641369955;
5,17182573754503E-5;
6,74874977881791E-6;
-3,98357537425119E-6;
-1,37868734890892E-5;
-4,6014269905843E-5;
-9,43202071675565E-5;
-0,000131928812103752;
-0,00013939449897508;
-0,000124760274662977;
-0,000117313049317917;
-0,000139689066001235;
-0,000182701017603489;
-0,000206159074469904;
-0,000167761020235254;
-5,83097115703396E-5;
8,50840370984159E-5;
0,000199736735063517;
0,00023757654332141;
0,000195072592199803;
0,000111293513991228;
3,71817698945687E-5;
6,13015220520186E-7;
-6,71401149317642E-6;
-1,33707094490871E-5;
-3,93514337170073E-5;
-7,91900247862049E-5;
-0,000109943522859534;
-0,000114970162536765;
-0,00010115106254943;
-9,35165940064309E-5;
-0,000111402499267663;
-0,000146981724360332;
-0,000166005077194412;
-0,000132452801378086;
-3,85159606194443E-5;
0,00941765428272101;
0,0228122002617929;
0,0165881585299727;
0,00961320812619017;
0,0122791059277384;
0,00707358356580056;
0,00565162562600591;
0,00459354044206368;
0,000845795638267691;
0,00101570895470358;
-0,00124088923535053;
-0,00206854786121958;
-0,00288819729879227;
-0,00462333039563192;
-0,00495078689462642;
-0,00593468859130691;
-0,0060502653180548;
-0,00630794614842316;
-0,00709135067203061;
-0,007940163001585;
-0,00926590230893011;
-0,0100779725900401;
-0,0103263128905596;
-0,00994616563368824;
-0,00910447893029939;
-0,0083795517832229;
-0,0078057362244308;
-0,00743834625169273;
-0,00703419194584762;
-0,00642381321450967;
-0,00570940923182533;
-0,00501491619908092;
-0,00451394378494996;
-0,00414284234744842;
-0,00371139925453517;
-0,00308742947221842;
-0,00231473573839693;
-0,00167353376018139;
-0,00143957454993757;
-0,0016797530590013;
-0,00215632052676966;
-0,0024505917316474;
-0,00224814597699611;
-0,00152331037850719;
-0,000539669786954447;
0,000358449946766495;
0,000983773818469967;
0,00139104241530048;
0,0017755911485492;
0,00227296976021475;
0,00284425956766699;
0,00333000772383436;
0,00361274477543139;
0,00373905750050652;
0,00388278707629008;
0,00418049318469523;
0,00458015369125324;
0,00484345187600423;
0,00471744602391198;
0,0041456125162317;
0,00334957060830194;
0,00270646873293729;
0,00250728278551733;
0,00277487906695484;
0,00327371700133328;
0,00369537765077046;
0,00387148118297952;
0,0038547408644008;
0,00382232339545709;
0,00389843454997683;
0,00404947720406505;
0,00413272412247316;
0,00404404402763131;
0,00382627643512984;
0,00363706740386423;
0,00360004293221259;
0,00366891281186685;
0,00363008842966819;
0,00325677741144138;
0,00249895158628768;
0,00155620270842482;
0,000767387874363075;
0,000393640393995447;
0,000455221361138772;
0,0007407085639423;
0,000973494606423406;
0,00100262018475843;
0,000875164649643475;
0,000749453083853651;
0,000736248787787565;
0,000805064939974627;
0,000827891271636999;
0,000711297756094068;
0,000493135395842795;
0,000313633544145384;
0,000282460304854592;
0,000357601832921483;
0,000347950332534456;
5,08540573075308E-5;
-0,000578659694088394;
-0,0106967101289568;
-0,0246316806690085;
-0,0186358654010642;
-0,011562793944143;
-0,0139598857559997;
-0,00851822869651253;
-0,00700391936002045;
-0,00596309734330966;
-0,00222651824303581;
-0,00232079138592652;
7,52283614189219E-5;
0,00101147339265816;
0,00183967947596331;
0,00351058970808252;
0,00380354137645886;
0,00486279810914332;
0,00513242008697051;
0,00548221256205958;
0,00614667857687267;
0,00663213591339315;
0,00747993340999821;
0,00792013505024097;
0,00807228863704174;
0,0078837593723057;
0,00738241472129308;
0,00696518673483569;
0,00656733049611198;
0,00627437801736139;
0,00594584219394659;
0,00548381548467205;
0,00496991966657788;
0,00444403921759372;
0,00401839729644456;
0,00365354020665015;
0,0032500948950252;
0,00274678702547233;
0,00215968163350578;
0,00164444204739928;
0,00134495832306984;
0,00129884773097997;
0,00138342490045154;
0,00137520646932084;
0,00110964928865567;
0,000571734227759465;
-9,77555180932245E-5;
-0,000714463603779675;
-0,00117837309813779;
-0,00151741943556226;
-0,00183629345727528;
-0,00220738872751256;
-0,00260973159793448;
-0,00295759409855754;
-0,00318722118238466;
-0,00332368000159058;
-0,00346083039424311;
-0,00367287568446968;
-0,00393207660124382;
-0,00410925351554074;
-0,00406683432342951;
-0,0037736060611055;
-0,00335004322918786;
-0,0030021317169545;
-0,00288957095486716;
-0,00302588758500514;
-0,00328288691832394;
-0,00349186015317433;
-0,00356049649515378;
-0,00351794603707748;
-0,00346214456956301;
-0,00346210286443618;
-0,00349973603910429;
-0,00349637308263706;
-0,00339445156928557;
-0,00321790609447917;
-0,00305471815460372;
-0,0029742973826233;
-0,00295147799279255;
-0,00286741936156081;
-0,00259532727401423;
-0,00210690580551692;
-0,00151382772201418;
-0,00100649862682984;
-0,000732357330752887;
-0,000703674418454816;
-0,000802000748849628;
-0,000871581579335923;
-0,000827185753670341;
-0,000695510793640083;
-0,000566476929490662;
-0,000503239208815721;
-0,00048868522493077;
-0,000449963272278993;
-0,000333678593823058;
-0,000161358823912052;
-1,33284820324602E-5;
4,72503003803358E-5;
4,41071757524496E-5;
8,6910326253166E-5;
0,000292522043089464;
0,000687390813364377;
0,0105031153220193;
0,0241952818452434;
0,0181134330640245;
0,0111177657362086;
0,0136760276600011;
0,00837591573865648;
0,00692733699880538;
0,00589379107245975;
0,002164328095431;
0,00230607328276804;
-1,35578618454342E-5;
-0,000891453883160029;
-0,00171337682590825;
-0,00341617815523664;
-0,0037283561906547;
-0,00475482021966993;
-0,00495529295480534;
-0,00526871773285257;
-0,00600226566164666;
-0,00667783520670643;
-0,00777280597070597;
-0,00840966674868414;
-0,00862588633195795;
-0,00836335961022654;
-0,00771732876707378;
-0,00717199215700371;
-0,00670998280533973;
-0,00640223668085166;
-0,00605925933772285;
-0,00554912859179586;
-0,00496309644245574;
-0,00438043256600965;
-0,0039418370479133;
-0,00359617251299166;
-0,00320152125328992;
-0,00266377916782512;
-0,00201222055957987;
-0,00146031653016752;
-0,0012125570750245;
-0,00131941710422833;
-0,00160476828958053;
-0,00175550377774834;
-0,00153885237389072;
-0,000935371162394319;
-0,000141915734955056;
0,00058468500418191;
0,0011051307710581;
0,00145946073925569;
0,00179292177759635;
0,0022060189201576;
0,00266983216341136;
0,00306618495237205;
0,00330793101045696;
0,003429831344075;
0,00356075812127458;
0,00380183271791738;
0,0041143748744973;
0,00432174049306486;
0,00423675798865945;
0,00381784290197783;
0,00322934743971404;
0,00275057472858659;
0,00259688617264687;
0,00278530589573604;
0,00314185159317368;
0,0034387858169907;
0,00355186964901488;
0,00352010544517357;
0,003474332202062;
0,00350633081423147;
0,00359160009202925;
0,00362530109973593;
0,00353107967159646;
0,00334076125120371;
0,00317052943218172;
0,00311137391485704;
0,00312924401905827;
0,00306717829637861;
0,0027587076897231;
0,0021673943820461;
0,00144014439488489;
0,000825965503490883;
0,000516627742557504;
0,000527065379267278;
0,000702305418222548;
0,000839664850844565;
0,000828596444405985;
0,000703615752457989;
0,000580656262195321;
0,000540833803058919;
0,000561984160010672;
0,00055071487038388;
0,000438952975107077;
0,00025448494815925;
9,9719429060517E-5;
5,46081547668385E-5;
8,83763190817294E-5;
6,15988311248794E-5;
-0,000173387382399103;
-0,000649195509635019;
-0,0105699443470714;
-0,0243457926592333;
-0,0182920887662348;
-0,0112671134804925;
-0,0137668658161247;
-0,00841517149065283;
-0,00694135946828657;
-0,00590293371556594;
-0,00216908171841288;
-0,00229326081743819;
5,32699397470721E-5;
0,000951859841039579;
0,00177724340397883;
0,00347106957782416;
0,00377847498741449;
0,00481690011320548;
0,00504065935140858;
0,0053663673268497;
0,00607826660793428;
0,00669383462094012;
0,00771104195761555;
0,00828611646903713;
0,00848173640730335;
0,00824105364645829;
0,00763838868013981;
0,00713137191024157;
0,00668842925789795;
0,00638488068584051;
0,00604565849526944;
0,005548716509025;
0,00498252973856847;
0,00441524059160133;
0,00397973860289163;
0,00362839294064444;
0,00323112599224656;
0,00270261928858548;
0,00206818783977752;
0,00152551719838334;
0,00126309428823753;
0,00132850152604587;
0,00156014118200425;
0,00166837482812182;
0,00143775421353388;
0,000849522065331206;
8,60499703739445E-5;
-0,00061401171869671;
-0,00112099545645342;
-0,00147196502795079;
-0,00180249653915125;
-0,0022065339669766;
-0,00265699940671534;
-0,00304298668820632;
-0,0032823506677436;
-0,00340747364226259;
-0,00353957294582632;
-0,00377424528429558;
-0,00407549794800752;
-0,00427676392626225;
-0,0042008411926233;
-0,00380771080536031;
-0,00325247326055513;
-0,00279989859031495;
-0,0026548787523769;
-0,00283424271303088;
-0,00317289498184047;
-0,00345399000934422;
-0,00355895032551036;
-0,00352502203444947;
-0,0034774924724523;
-0,00350445051006784;
-0,00358242728724987;
-0,00361051924566154;
-0,00351494718019844;
-0,00332613432989333;
-0,00315622272667418;
-0,00309348729587189;
-0,00310546175051534;
-0,00304033630328812;
-0,0027364135242235;
-0,00215768370205193;
-0,00144635120516465;
-0,000844580897954431;
-0,000539565015173835;
-0,000546460422394068;
-0,000714370242845373;
-0,000845247042192096;
-0,000830797715300904;
-0,00070482609947575;
-0,00058124206415097;
-0,000539925323269882;
-0,000559052284072554;
-0,000546317482593487;
-0,000434154090521752;
-0,000249783469172278;
-9,46562469212631E-5;
-4,84023820694915E-5;
-8,08866500971313E-5;
-5,36380448812052E-5;
0,000180657153874285;
0,00065514539170774;
0,0012413380461854;
0,0017202715522043;
0,0019230199154117;
0,00183664987786885;
0,00159858106223934;
0,00138876311619121;
0,00130576199454254;
0,00131954080997668;
0,00132767406808896;
0,00125857519405065;
0,001132571602653;
0,001033583770221;
0,00102310050762015;
0,00107701861734889;
0,00110430310361646;
0,00103365860153998;
0,000892738613785641;
0,000806715751169961;
0,000908570103564412;
0,00122837905630141;
0,0016507640184108;
0,00197908333569338;
0,00206184309209976;
0,00188782921237641;
0,00158084505728427;
0,00130272838258324;
0,00114210644414503;
0,00107214619331978;
0,00100111838721314;
0,000865002494743937;
0,000682159553892781;
0,000527853814318263;
0,000457172077139363;
0,000448543439887398;
0,000420539521390767;
0,000309443101877436;
0,000140003930448231;
2,40343541842162E-5;
8,0185845960558E-5;
0,000335134833472895;
0,00068575502166285;
0,000956546999979851;
0,00101241746001106;
0,000843380500447477;
0,000559693334262002;
0,000305353455688582;
0,000159067312660532;
9,67684220823998E-5;
3,67179685373438E-5;
-7,81217608613809E-5;
-0,000231562248558355;
-0,000356916732671426;
-0,000405478604286194;
-0,000396594604291232;
-0,000402666528382495;
-0,000480324584306007;
-0,000607769218228522;
-0,000686131296304536;
-0,000610592104949659;
-0,000357812604495291;
-1,92624413276789E-5;
0,000249714164254102;
0,000329635280019495;
0,000211628680764743;
-7,0252845530576E-6;
-0,000199370840916865;
-0,000296153260478419;
-0,000318770717724752;
-0,000339402398603238;
-0,000408392071604871;
-0,000511570129750543;
-0,000590349551651294;
-0,000602013434842091;
-0,000563702648033473;
-0,000539145034832382;
-0,000578142875304637;
-0,000661598452797393;
-0,000702816147411014;
-0,000609973256895268;
-0,000362756671807266;
-4,14475800487817E-5;
0,000217835813607723;
0,000310514449246207;
0,000228884215471938;
5,80665516852325E-5;
-9,09690624965126E-5;
-0,000157762736169128;
-0,000161049898208038;
-0,00016384518873696;
-0,000210044507430893;
-0,000287258295620808;
-0,000344412800779792;
-0,000344309353113457;
-0,000301882977480857;
-0,000272571038387933;
-0,000299635991025658;
-0,000366417217282068;
-0,000397564402714121;
-0,000313364378469134;
-9,62362854870146E-5;
0,00018415504828401;
0,000409836732811774;
0,000490293107698881;
0,000418979717916769;
0,000269675815199814;
0,000138428720768303;
7,75239015615401E-5;
7,07838762198064E-5;
6,38296580750983E-5;
1,88448644171365E-5;
-5,34077678660475E-5;
-0,000108843934449122;
-0,000115387418306972;
-8,58801740472677E-5;
-6,79922186022543E-5;
-9,88651173546164E-5;
-0,000164102619473166;
-0,00019892760237893;
-0,000134905429873461;
4,30114631727773E-5;
0,000275056621038168;
0,000460151598941485;
0,000520856254208837;
0,000451681865425791;
0,000315834283555505;
0,000195467288288705;
0,00013525286762401;
0,000121372205999977;
0,000107442500547685;
6,12617246276722E-5;
-7,94852282503129E-6;
-6,2617336340835E-5;
-7,5446426553655E-5;
-5,73671768891851E-5;
-4,88868865585939E-5;
-8,15162964750381E-5;
-0,000142993814753804;
-0,000178361079076886;
-0,000129645384403528;
1,58315932135321E-5;
0,000207422117172388;
0,00035961940904228;
0,000407015532760049;
0,000345051501173994;
0,000227135286115588;
0,000122570530033382;
6,89792439307303E-5;
5,4686978951231E-5;
4,06459208081477E-5;
-2,09359980267611E-7;
-6,01088556826115E-5;
-0,000107504513956889;
-0,000119518438988145;
-0,000105349507267468;
-9,89472301217202E-5;
-0,000126676030173156;
-0,00017826041600321;
-0,00020777671247342;
-0,000166867560909328;
-4,50392485483307E-5;
0,000115409470230794;
0,000243227824889261;
0,000284011478118702;
0,000234032353986839;
0,000137712178656248;
5,25846853131311E-5;
9,81672197973652E-6;
-3,10563593279686E-7;
-1,0147220807794E-5;
-4,20733196654365E-5;
-8,96511960854769E-5;
-0,000126834628986108;
-0,000134779771501053;
-0,000121104029029234;
-0,000113777156472803;
-0,00013447403558533;
-0,000174729250013091;
-0,000196844542994824;
-0,000161208780767279;
-5,93060202775298E-5;
7,41692735831591E-5;
0,000180935242913041;
0,000216591331413804;
0,000178165536561935;
0,000101921630397416;
3,47155252235143E-5;
1,86657715215143E-6;
-4,55929676617403E-6;
-1,08298647409585E-5;
-3,50711644242819E-5;
-7,20454494763774E-5;
-0,000100680341061186;
-0,000105773091936957;
-9,34986418397908E-5;
-8,64077660952504E-5;
-0,000101927108472928;
-0,000133219804971441;
-0,00015000977469952;
-0,000120572456779473;
-3,81633233023875E-5;
6,93980906341218E-5;
0,000155537550304671;
0,0001848800810643;
0,000155139037165493;
9,52335081755106E-5;
4,24110155991786E-5;
1,67364681774592E-5;
1,18908161972335E-5;
7,08403120271503E-6;
-1,1980221726367E-5;
-4,11381481381309E-5;
-6,37801658972459E-5;
-6,79665154041554E-5;
-5,85708131007928E-5;
-5,32768245129385E-5;
-6,56981775460253E-5;
-9,04557497422257E-5;
-0,00010392112333313;
-8,14284157122225E-5;
-1,78122968374188E-5;
6,52664832515019E-5;
0,000131710253848046;
0,000154214592698146;
0,000131103503105477;
8,4732571132539E-5;
4,37688753451299E-5;
2,35887783143433E-5;
1,93162410176159E-5;
1,50472621611248E-5;
-1,01602674335992E-7;
-2,29256567977765E-5;
-4,0791901505181E-5;
-4,46659793768358E-5;
-3,82631648304397E-5;
-3,49383828493687E-5;
-4,49171528606402E-5;
-6,41193024939839E-5;
-7,48248362189158E-5;
-5,86367218378776E-5;
-1,17902762030567E-5;
4,95191546815383E-5;
9,84841422506897E-5;
0,000114950910573311;
9,77793764087895E-5;
6,3507203774359E-5;
3,32023330178384E-5;
1,80908403755473E-5;
1,45717610948723E-5;
1,10584178145047E-5;
-3,20383074054516E-7;
-1,72111169198099E-5;
-3,04947785168207E-5;
-3,37028503334202E-5;
-2,95302629817691E-5;
-2,75174598501946E-5;
-3,49074716808945E-5;
-4,87680703780079E-5;
-5,65840606938096E-5;
-4,54760600858915E-5;
-1,29108171576157E-5;
2,97220167882783E-5;
6,37780178205987E-5;
7,53811895986174E-5;
6,38578921475026E-5;
4,06370390509717E-5;
2,01196093609928E-5;
9,89278814621055E-6;
7,47254546034753E-6;
5,05207712864291E-6;
-2,60524689025293E-6;
-1,3893064215432E-5;
-2,2766930030276E-5;
-2,5001422372468E-5;
-2,23999614656649E-5;
-2,11726773934372E-5;
-2,59611015888917E-5;
-3,48362199634542E-5;
-3,98217065554038E-5;
-3,28456505407014E-5;
-1,24452775328519E-5;
1,41752940893481E-5;
3,54747350184609E-5;
4,30352829097165E-5;
3,65868246964725E-5;
2,31189360152441E-5;
1,12441054815059E-5;
5,39291314210829E-6;
4,05122971424505E-6;
2,68908529399568E-6;
-1,64831827747028E-6;
-8,00240445821514E-6;
-1,29895550980413E-5;
-1,43235321384226E-5;
-1,30357332678486E-5;
-1,24581897897626E-5;
-1,49862643581517E-5;
-1,9557330616944E-5;
-2,21097948934259E-5;
-1,87143235416711E-5;
-8,82762383474833E-6;
0,00933738685274742;
0,0226439293904687;
0,0163909262788251;
0,00944909303545528;
0,0121801904570777;
0,00703240541485797;
0,00563885599807082;
0,00458623009119634;
0,000843460362947573;
0,00103375100617518;
-0,0105247548281251;
-0,0246243342105501;
-0,0191831972994124;
-0,0139900434002161;
-0,017060071078541;
-0,0128861354278585;
-0,0115811163377262;
-0,0107708705140026;
-0,00783951172671383;
-0,00895770312744732;
-0,00816216529546055;
-0,00825392998757273;
-0,00771353838261147;
-0,00555573650208526;
-0,00431955005418607;
-0,00257208671084094;
-0,00188612004332587;
-0,00127180598256611;
-5,12718492052225E-5;
0,0015058557155087;
0,00367841885200269;
0,00529025858772046;
0,00607109814597778;
0,006022396499018;
0,0055477737908294;
0,00540842493949595;
0,00560882456533218;
0,00589228191856369;
0,00569216518192692;
0,00475181166915447;
0,00343899032397869;
0,00235338369701178;
0,00202638602728238;
0,00241778204672406;
0,0030306819137104;
0,00334139215387426;
0,00319331133876733;
0,00295068322108029;
0,0031287061412465;
0,00394868297874878;
0,00510839717492257;
0,00597731201407537;
0,00608399775713973;
0,00545197650493894;
0,00455865337462785;
0,00392795437525999;
0,00370600265974128;
0,00357119846558678;
0,00303356482922553;
0,00188381893331275;
0,000407564657954867;
-0,000808021907211539;
-0,00131602966740488;
-0,00114174883949302;
-0,000732152944841688;
-0,000573909456635333;
-0,000795879736102562;
-0,00108272709568998;
-0,000966689900788334;
-0,000250439336003221;
0,000789753478254466;
0,0015900959089234;
0,00172242738314186;
0,00120932525632802;
0,000477951835981839;
-3,65120153896425E-6;
-0,000105239262844634;
-0,00011852778251148;
-0,00048356002752842;
-0,00138893985399449;
-0,00257908336244956;
-0,0035279932839373;
-0,00383659516733188;
-0,00352845334583688;
-0,0030050787046391;
-0,00270319184823872;
-0,00273926225030512;
-0,00283283790358948;
-0,00256710097944467;
-0,0017667927916062;
-0,000678980778371058;
0,000193285404272553;
0,000468296470209891;
0,000166205526444665;
-0,000332876709986415;
-0,000613094698103458;
-0,000559739225947199;
-0,000433425293839261;
-0,000625992864522486;
-0,00130496479483132;
-0,00224270526589352;
-0,00297154730344114;
-0,0031370806040423;
-0,00276052742472803;
-0,00219861302787053;
-0,0018391547259068;
-0,00178588217423929;
-0,00179074719529198;
-0,00148494200374987;
-0,00071342590534904;
0,000305464971319948;
0,0011274775306766;
0,00141599446811108;
0,00118945275820223;
0,000783715550686572;
0,000565539972388404;
0,000635558482398139;
0,000763528714906123;
0,000604145323845548;
1,04540192263134E-5;
-0,000816130946721138;
-0,00146308080716519;
-0,00161805855194472;
-0,00129960688217201;
-0,000821419282927259;
-0,000524426721437783;
-0,000499885909905176;
-0,000530177271782746;
-0,000291751819461054;
0,000351509627332103;
0,00120869520018768;
0,00189137642473477;
0,0021056970338092;
0,00186850973043657;
0,00147388234429733;
0,00124225526491694;
0,00126109298841818;
0,00132895517283185;
0,00114450419798573;
0,000580124615084779;
-0,00018765267945506;
-0,00079844999343984;
-0,000979703139063921;
-0,000747492303706731;
-0,00037502019065321;
-0,000159127817009718;
-0,00017941734095978;
-0,000247004181370746;
-8,10251300251557E-5;
0,000436705760463523;
0,00114085911044073;
0,00169520534202938;
0,00184577053403158;
0,00160766723993645;
0,00123555266966612;
0,00100629286546639;
0,00099489671104076;
0,00102677556050458;
0,000841577071021242;
0,000329537846182705;
-0,000356374380087856;
-0,000904822853682354;
-0,00108064488766849;
-0,000897788496764183;
-0,000591772731535591;
-0,000418402484511938;
-0,000446536916962198;
-0,000514236430140468;
-0,000380582999669743;
5,57448516200767E-5;
0,000653084927528656;
0,00112362848693827;
0,00125032427069514;
0,00104647857628236;
0,00072995276979505;
0,000537020667854508;
0,000531076347144024;
0,000562435729131259;
0,000408726263188001;
-2,33735968489187E-5;
-0,000602914811201699;
-0,00106418675053924;
-0,00120679742071825;
-0,00104276129986107;
-0,000772694576633197;
-0,000614396249095328;
-0,000626777377353932;
-0,000672830320165025;
-0,000548585844993848;
-0,000168324205432233;
0,000348139161073755;
0,000757680728961952;
0,000877289301529706;
0,00071856424536169;
0,000465417785168087;
0,000316736595077575;
0,000325289976159714;
0,000364424478998493;
0,000246797093371168;
-0,000105777318444208;
-0,000582648376456883;
-0,000960110328364606;
-0,0010697400411153;
-0,000921720822461183;
-0,000684509875767204;
-0,000540900446154625;
-0,000540582210759323;
-0,000569356553532962;
-0,000457089538098213;
-0,00013231558614644;
0,000305217286099851;
0,000653354925870008;
0,00076027541547785;
0,000636029262781947;
0,000433497819795862;
0,000317442057765997;
0,000331021001566317;
0,000368738095414911;
0,0002753286026986;
-1,35462568080472E-5;
-0,000405784427215644;
-0,000716035111765057;
-0,00080503093251408;
-0,00068123517785606;
-0,000483709637817813;
-0,000363262877317278;
-0,000361110633086533;
-0,000383765644648601;
-0,000291847182783403;
-2,68268500238088E-5;
0,000329815728972415;
0,000613172637647838;
0,000699753156333247;
0,000598191536096698;
0,000433205076071415;
0,000338624810434364;
0,000348957522066251;
0,000377958084675822;
0,000299474784018099;
6,17041680451376E-5;
-0,00026009854782332;
-0,000515361486415239;
-0,000591232427432926;
-0,000494609161349563;
-0,000337932454661895;
-0,00024305216894485;
-0,000243491863503273;
-0,000264453766114791;
-0,000194319882205422;
1,37559913454268E-5;
0,000294758844368945;
0,000517340127310348;
0,000583508644984758;
0,000500585725119759;
0,000367903806467975;
0,000291458318273505;
0,000298003164840498;
0,000318644924482998;
0,000253417597014986;
6,17521878794017E-5;
-0,00019629616864541;
-0,000401459131811848;
-0,000464644477752528;
-0,000391356568099751;
-0,00027014063124313;
-0,000196855278644293;
-0,000198111179730627;
-0,000215849838732139;
-0,000163323339594591;
-4,15967666356622E-6;
0,000211332751690816;
0,000381785478481163;
0,000431962309642634;
0,000367973296056497;
0,000266456290840044;
0,00020856078465217;
0,000214150131541353;
0,000229840089708293;
0,000179021699931468;
3,11109572475175E-5;
-0,0001674361363674;
-0,000325290321836756;
-0,000374550809328738;
-0,00031948996260116;
-0,000227380579774474;
-0,000170944431765718;
-0,000170624961876902;
-0,000183221398750857;
-0,000144068031517748;
-2,60976604853014E-5;
0,000133410889548483;
0,000259647894864568;
0,000297515221873669;
0,000252024335652633;
0,000179708561526634;
0,000139742614301373;
0,000145929685406905;
0,000158637212336726;
0,000121917430273386;
1,39912578057893E-5;
-0,000130737590278522;
-0,000245649290400891;
-0,000281569551070784;
-0,000241683758875654;
-0,000174487525756916;
-0,00013228113324914;
-0,000130045311833004;
-0,000137638600666839;
-0,000109816731749829;
-2,76968222613258E-5;
8,28864833819594E-5;
0,000170441285183031;
0,000197533134044086;
0,000168192490893034;
0,000121313699220175;
9,68236876497167E-5;
0,000103253288533301;
0,000113056390916831;
8,83959005497648E-5;
1,51874170569284E-5;
-8,27440484698551E-5;
-0,000160423729469505;
-0,000185067047381636;
-0,000158907502173147;
-0,000114021879969845;
-8,4855168119617E-5;
-8,15920012475745E-5;
-8,54542308556694E-5;
-6,81098205550828E-5;
-1,78034694188675E-5;
4,95819272239273E-5;
0,000102822478305334;
0,000119821215960851;
0,000103740654289086;
7,81551057111512E-5;
6,6304120766252E-5;
7,21807512014389E-5;
7,87553503570231E-5;
6,39034278987891E-5;
2,01935620824686E-5;
-3,77427132977177E-5;
-8,36993144057885E-5;
-9,90906191939343E-5;
-8,53277397009198E-5;
-6,02828135067693E-5;
-4,29542110932507E-5;
-3,93599944559489E-5;
-4,05035347430745E-5;
-3,26225746611773E-5;
-1,01045308260305E-5;
1,97234347494481E-5;
4,30567873252437E-5;
5,09647329696383E-5;
4,58468800426126E-5;
3,8117957248579E-5;
3,67122624347705E-5;
4,17629386009362E-5;
4,52879268993853E-5;
3,86384079919142E-5;
2,00656190794288E-5;
-3,70195077918623E-6;
-2,25499276054488E-5;
-3,00548860860704E-5;
-2,69283366574843E-5;
-1,88989649068847E-5;
-1,17601861031996E-5;
-7,95247023379156E-6;
-6,79679997949432E-6;
-6,93082338488592E-6;
-7,97314958776696E-6;
-9,98916416811906E-6;
-1,20019331415682E-5;
-1,17852068504158E-5;
-7,6042814095823E-6;
-2,06127849748574E-7;
7,2382666750477E-6;
1,16244490322185E-5;
1,26566833498946E-5;
1,30937736040973E-5;
1,59747308429624E-5;
2,13191250776729E-5;
2,56228025242339E-5;
2,50273733662219E-5;
1,94075924330686E-5;
1,32768694226164E-5;
1,19791384473975E-5;
1,61067827379636E-5;
1,93670417701214E-5;
1,27182143594201E-5;
-7,85064973093231E-6;
-3,63311495120536E-5;
-5,93865397813701E-5;
-6,54763342827141E-5;
-5,34386363678016E-5;
-3,33477941360745E-5;
-1,84629275998724E-5;
-1,45578123182812E-5;
-1,54919809211981E-5;
-8,99454028293174E-6;
1,19435936749318E-5;
4,17303593590943E-5;
6,5510991242018E-5;
7,08687146192475E-5;
5,81618366139307E-5;
4,04067576057896E-5;
3,21935698685991E-5;
3,6648324291016E-5;
4,17346333374797E-5;
2,98287043144997E-5;
-6,70627322625259E-6;
-5,68696849833366E-5;
-9,71702367080774E-5;
-0,000108429949833994;
-8,99737996754306E-5;
-5,95325271675515E-5;
-3,86183127171932E-5;
-3,51593116567142E-5;
-3,77178038226412E-5;
-2,62345912689015E-5;
9,52803324565397E-6;
5,93665362578266E-5;
9,91386759552257E-5;
0,000109436290366428;
9,10088021012643E-5;
6,3797276758967E-5;
4,99214616093725E-5;
5,45868595876318E-5;
6,11249303600071E-5;
4,49794617386943E-5;
-4,4177130731848E-6;
-7,20509957926494E-5;
-0,000126267247530753;
-0,000141765026450531;
-0,000118277257005702;
-7,96815604113383E-5;
-5,40875509301822E-5;
-5,11153633195779E-5;
-5,5059926619992E-5;
-3,96293748533156E-5;
7,97514579386414E-6;
7,38424574341031E-5;
0,000126404226575359;
0,000140673900677451;
0,000117709146229495;
8,29543719782411E-5;
6,45130827251765E-5;
6,92597382424034E-5;
7,6890920431874E-5;
5,73992185979512E-5;
-2,09102890753269E-6;
-8,34253190878113E-5;
-0,000148574985520554;
-0,000167471498449633;
-0,00014018424000489;
-9,53855576885368E-5;
-6,63013375520717E-5;
-6,38322030984415E-5;
-6,89297002124242E-5;
-5,04619365019117E-5;
6,3349075640121E-6;
8,46518651206306E-5;
0,000147159928559082;
0,000164557711539321;
0,000138137401218812;
9,75773500311274E-5;
7,55839919754042E-5;
8,03326588981163E-5;
8,87722248319245E-5;
6,67628399119348E-5;
-3,22924298864634E-7;
-9,19703765792571E-5;
-0,000165363065090589;
-0,000186870191211857;
-0,00015683342145723;
-0,000107518982142432;
-7,59552734588676E-5;
-7,39604078091222E-5;
-7,99643848546528E-5;
-5,92312945274999E-5;
4,43978938951108E-6;
9,206166032622E-5;
0,000162022033002341;
0,000181825025519572;
0,000152932539480277;
0,000108133165874235;
8,35137056130404E-5;
8,82232186676013E-5;
9,72451545148563E-5;
7,34710590631181E-5;
1,01257507947164E-6;
-9,79411917523227E-5;
-0,000177184418782145;
-0,000200584491326976;
-0,000168698156142435;
-0,000116328588758316;
-8,31519531754115E-5;
-8,15865294324531E-5;
-8,82650961743068E-5;
-6,59346336952732E-5;
2,57995691154279E-6;
9,67468589843839E-5;
0,000171969264135755;
0,000193541207497529;
0,000163038063559483;
0,000115373305971961;
8,89418090885759E-5;
9,35782917765558E-5;
0,000102984029437758;
7,80993871057226E-5;
2,20461527956607E-6;
-0,000101434733437928;
-0,000184443104732596;
-0,000209110289272205;
-0,000176157563728955;
-0,000122003849724739;
-8,79680789811712E-5;
-8,67941531034293E-5;
-9,39497946015572E-5;
-7,06112323313711E-5;
9,68908183913796E-7;
9,92667409015614E-5;
0,000177831394340347;
0,000200603262109895;
0,000169222966626861;
0,000119873610259202;
9,23271582996323E-5;
9,68527688703575E-5;
0,00010646000720914;
8,10182009954899E-5;
3,34821256306434E-6;
-0,000102723753544329;
-0,000187704781770139;
-0,000213103934318274;
-0,000179762808068208;
-0,000124921864083735;
-9,06777219651686E-5;
-8,98651454326608E-5;
-9,73327147572795E-5;
-7,35009680663043E-5;
-3,95293788609419E-7;
9,9944981238988E-5;
0,000180188109430473;
0,000203657749613368;
0,000172018966139885;
0,000121990480755026;
9,39220734824902E-5;
9,83005734688095E-5;
0,000107948039135104;
8,24152278049172E-5;
4,38206093552826E-6;
-0,00010220419376153;
-0,00018763042238907;
-0,000213303734818625;
-0,000180147843626593;
-0,000125548368695832;
-9,16442068621221E-5;
-9,11629654699833E-5;
-9,87999171928087E-5;
-7,49133007614154E-5;
-1,59377088918884E-6;
9,90100551163133E-5;
0,000179513000188796;
0,000203248160913715;
0,000171871017669406;
0,000122014008593789;
9,39272581749722E-5;
9,81304442862586E-5;
0,00010768278673019;
8,24511706776281E-5;
5,24358329445861E-6;
-0,000100241094296417;
-0,00018482381731627;
-0,00021037987115433;
-0,000177882471632379;
-0,000124294442376139;
-9,11807417234875E-5;
-9,09974036062609E-5;
-9,86784680082988E-5;
-7,51014065140857E-5;
-2,66642444295069E-6;
9,67098428604391E-5;
0,000176282264472944;
0,000199917805148452;
0,000169234512128824;
0,000120259487202674;
9,25774805004177E-5;
9,6585616828007E-5;
0,000105932259753719;
8,13273426996057E-5;
5,9306455763768E-6;
-9,71127067600189E-5;
-0,000179781490834888;
-0,000204890079316991;
-0,000173433712393223;
-0,000121483434455987;
-8,95227189288547E-5;
-8,960212785516E-5;
-9,721911492974E-5;
-7,42498417382395E-5;
-3,60445493779689E-6;
9,33144359174881E-5;
0,000170973049564237;
0,000194203904348156;
0,000164565352271183;
0,000117053702007304;
9,01243733643052E-5;
9,39234229452815E-5;
0,000102974382892779;
7,92593425701132E-5;
6,47246577790849E-6;
-9,3042204403093E-5;
-0,000172926711421478;
-0,000197315549974116;
-0,000167203193291095;
-0,000117389536387218;
-8,68673319206797E-5;
-8,71752387668502E-5;
-9,4637624263528E-5;
-7,25164281116247E-5;
-4,39246494457093E-6;
8,90740782190093E-5;
0,000164021547552445;
0,000186595810196272;
0,000158278243158988;
0,000112693423785763;
8,67953701538039E-5;
9,03749323826315E-5;
9,90575086397979E-5;
7,64383409137008E-5;
6,89148431695979E-6;
-8,82352561851347E-5;
-0,000164646297364494;
-0,000188096532022495;
-0,000159561107027598;
-0,000112269892450597;
-8,34038917096389E-5;
-8,39079747349791E-5;
-9,1141942568375E-5;
-7,00576511974734E-5;
-5,03178156423061E-6;
8,41980748868913E-5;
0,000155803993215851;
0,000177517718768831;
0,000150730775374247;
0,000107430741393338;
8,27804624646161E-5;
8,61333489580241E-5;
9,43904217886451E-5;
7,30223867450886E-5;
7,19552522304514E-6;
-8,2887275963873E-5;
-0,000155297125823933;
-0,000177637627957876;
-0,000150849834630865;
-0,000106366410279009;
-7,93140668121413E-5;
-7,99837429993527E-5;
-8,69301519755731E-5;
-6,70253849527801E-5;
-5,53561878862125E-6;
7,8861382470622E-5;
0,000146644742168437;
0,000167337651595629;
0,000142232765649939;
0,000101482540247806;
7,82419717321331E-5;
8,1364349878361E-5;
8,9153228559701E-5;
6,91474070368338E-5;
7,3883248947508E-6;
-7,7173689657466E-5;
-0,00014519700192054;
-0,000166298681731246;
-0,000141374286317147;
-9,98953768118223E-5;
-7,47610486612168E-5;
-7,55672447418142E-5;
-8,21797151023758E-5;
-6,35559702619151E-5;
-5,91751755933852E-6;
7,32170080377767E-5;
0,000136829255603631;
0,000156380374923174;
0,000133058467197242;
9,50418254826419E-5;
7,33252285033057E-5;
7,6216431510768E-5;
8,3507405495333E-5;
6,49365477359403E-5;
7,47754680878956E-6;
-7,12435674047965E-5;
-0,000134619684116868;
-0,00015439048040661;
-0,000131397568411552;
-9,30428484076406E-5;
-6,98849140673218E-5;
-7,08002199524695E-5;
-7,70437186474651E-5;
-5,97665978986594E-5;
-6,18729551639959E-6;
6,74008123911931E-5;
0,000126609389128411;
0,000144932483832181;
0,000123450801785095;
8,82808799110309E-5;
6,81609593658669E-5;
7,08229772141131E-5;
7,75976124304804E-5;
6,05012839585641E-5;
7,47454843210916E-6;
-6,52215348802414E-5;
-0,000123798144412927;
-0,000142178554056787;
-0,000121144554090672;
-8,59676810109065E-5;
-6,48053752302011E-5;
-6,58043588578441E-5;
-7,1654046731068E-5;
-5,57583322639225E-5;
-6,3532658777846E-6;
6,153044899497E-5;
0,000116203208017374;
0,000133242342706139;
0,000113620719669557;
8,13498399661764E-5;
6,28633974504418E-5;
6,53003412610679E-5;
7,15498383748242E-5;
5,5939172483498E-5;
7,39104662575004E-6;
-5,92125304809491E-5;
-0,000112930431689681;
-0,000129889303758489;
-0,000110807427235428;
-7,88062137027212E-5;
-5,96258989276235E-5;
-6,06853041353197E-5;
-6,61253723351817E-5;
-5,16196571400953E-5;
-6,42469287018842E-6;
5,57043525786929E-5;
0,000105795144259626;
0,000121520615824398;
0,000103747336217265;
7,43761965267396E-5;
5,75294741936378E-5;
5,97471982656268E-5;
6,54709754614614E-5;
5,13331600763806E-5;
7,23745180430139E-6;
-5,33048404222121E-5;
-0,000102183746184265;
-0,000117714241870977;
-0,000100549285910121;
-7,16749293056169E-5;
-5,44357130776771E-5;
-5,55344904132249E-5;
-6,05569654022809E-5;
-4,7427835441713E-5;
-6,41199328446423E-6;
5,00030584533773E-5;
9,5538502282688E-5;
0,000109943137396366;
9,39803822425468E-5;
6,74665767236797E-5;
5,22402473953231E-5;
5,42460763012721E-5;
5,94505362545972E-5;
4,67529820875421E-5;
7,02319955437389E-6;
-4,75712082311199E-5;
-9,16966624862416E-5;
-0,000105812481696801;
-9,0506045897498E-5;
-6,46714801759236E-5;
-4,93102872407812E-5;
-5,04295714660156E-5;
-5,50331720925719E-5;
-4,32489829173132E-5;
-6,32574532897396E-6;
4,44916166444164E-5;
8,55589888045E-5;
9,86547255966768E-5;
8,44435225096281E-5;
6,07093024596148E-5;
4,70630189721747E-5;
4,88654940363004E-5;
5,35628821002546E-5;
4,22569898799683E-5;
6,7574508349167E-6;
-4,20696368724415E-5;
-8,15811268270478E-5;
-9,43130664791099E-5;
-8,0788272125908E-5;
-5,7875737536013E-5;
-4,43118832541907E-5;
-4,54349494021084E-5;
-4,96240601419721E-5;
-3,91383951999785E-5;
-6,17599870569516E-6;
0,00937265569954084;
0,0227056876704886;
0,0164605098546912;
0,00950833339152733;
0,0122235682478018;
0,00706822027173035;
0,00567847869833371;
0,00463057896216909;
0,000878393517390508;
0,00103884161544516;
-0,00122728424778479;
-0,00206387765301735;
-0,00289045476870263;
-0,00462516488597649;
-0,00493867640822438;
-0,00589539142024535;
-0,00598182021137032;
-0,00622687500759455;
-0,00702871815071934;
-0,00792667576181453;
-0,00931465519466941;
-0,0101760743754257;
-0,0104411103840419;
-0,0100420821866044;
-0,00915973924289807;
-0,00839304271384803;
-0,00779175507281912;
-0,00741505428407581;
-0,00701435205757342;
-0,00641256985095803;
-0,00570738312794731;
-0,0050212821284337;
-0,00452598596858869;
-0,00415342662760873;
-0,00370897379471756;
-0,00306145378765287;
-0,00226420769553083;
-0,00161219563174075;
-0,00139237136250049;
-0,00167096896854913;
-0,00219617152639295;
-0,00252887377564852;
-0,00233918833161472;
-0,00159906935340698;
-0,000582733808512366;
0,000349370135990704;
0,000997616084611868;
0,00141311408059694;
0,00179484250614969;
0,00228420130906233;
0,00284636511511727;
0,00332397036605013;
0,00360181240321994;
0,00373006092266681;
0,00388544545061486;
0,00420291904923413;
0,00462251939630528;
0,00489453051122401;
0,0047577685758959;
0,00415661779618935;
0,00332359836136053;
0,00265132585172339;
0,00244242445673345;
0,00272163877108393;
0,00324560359165579;
0,00369381252157851;
0,00388827553232857;
0,00387832501888875;
0,00384324981234992;
0,00391154191392112;
0,0040532787581309;
0,00412833173763586;
0,00403511623023521;
0,00381930479424781;
0,00364011073671855;
0,00361907873482613;
0,00370343126753228;
0,00367114613656677;
0,00328978762056717;
0,00251043042756253;
0,00154075932125219;
0,000730728788886207;
0,000349754569683525;
0,000419533348168113;
0,000723280479324771;
0,00097585315050135;
0,00101911575302983;
0,000897024948719852;
0,000768724022337107;
0,000747890709150536;
0,00080730838172646;
0,000821953798051515;
0,000701142651656147;
0,00048489024048129;
0,000313864158457394;
0,000295283031751748;
0,000381954814669034;
0,000376942279417085;
7,42077192329696E-5;
-0,000569970661413299;
-0,0107060863584317;
-0,0246552446258821;
-0,018664396340181;
-0,011586029164363;
-0,0139707881808942;
-0,00851520073973584;
-0,00699039872251949;
-0,00594538314913869;
-0,00221119514468641;
-0,00231272087698384;
7,40683274785602E-5;
0,00100237326942719;
0,0018268021748361;
0,00349967115856843;
0,00379980379472052;
0,00486874057865331;
0,00514653340643471;
0,00549942214355495;
0,00616046312809929;
0,00663733188675316;
0,00747485679962745;
0,00790707714218628;
0,00805634457761031;
0,00787071960579759;
0,00737667784370723;
0,00696838152032861;
0,00657791573668787;
0,00628821162853257;
0,00595757688817019;
0,00548880470261355;
0,00496603463815847;
0,00443260776366632;
0,00400368448685795;
0,00364086666836714;
0,00324347797862961;
0,00274733079001752;
0,00216551879522608;
0,00165208704226161;
0,00135112431890352;
0,00130167698116303;
0,0013826933730909;
0,00137184297701509;
0,00110521897734961;
0,000568195557793303;
-9,82820163367424E-5;
-0,000710352634167628;
-0,00116956143764634;
-0,0015061881631719;
-0,0018268807552638;
-0,00220419797501485;
-0,00261499101405184;
-0,00296996757480868;
-0,00320242312496027;
-0,00333681724868932;
-0,00346895507742051;
-0,00367607055365811;
-0,00393248491500826;
-0,0041089829635253;
-0,00406641797847574;
-0,00377210712720711;
-0,00334645876502114;
-0,00299668529730432;
-0,00288367467407176;
-0,00302082040719084;
-0,00327846854048654;
-0,00348649451258061;
-0,00355278038601079;
-0,00350857097259407;
-0,00345435970099654;
-0,00346004489705853;
-0,00350568482382572;
-0,00350900534717339;
-0,0034095265707096;
-0,00323095896942773;
-0,00306373866658953;
-0,00298036066563262;
-0,00295692766255448;
-0,00287317909231868;
-0,00259961584589389;
-0,00210645761692028;
-0,00150662310117793;
-0,000993718561135648;
-0,000717883065001923;
-0,000691475619418568;
-0,00079352441082686;
-0,000865280090992987;
-0,000820554886857535;
-0,000687901037464946;
-0,000560261651757225;
-0,000502271143113284;
-0,000495253697398089;
-0,00046277409181593;
-0,000348588842766817;
-0,00017432551284589;
-2,3154292956876E-5;
3,86756124471788E-5;
3,43063787823885E-5;
7,59648099477841E-5;
0,000284126306868173;
0,000686715935547321;
0,0011795730725036;
0,00158404915806997;
0,00176190884655117;
0,00170243461620585;
0,0015181639233123;
0,00135652294108015;
0,00129792980501113;
0,00131688899845912;
0,00132842849347656;
0,00127351500081141;
0,00116968540087135;
0,0010875235586206;
0,00107900740045572;
0,00112460480487174;
0,00114842454414414;
0,00109034569023896;
0,000972445092877938;
0,000898468188373779;
0,000979428949060966;
0,00124110031383321;
0,00158792751754945;
0,00185609782849885;
0,00191903568178056;
0,00176722114409629;
0,00150415484576468;
0,00126529125549532;
0,00112468450240665;
0,00105938253425977;
0,000991916231404712;
0,000868383472693669;
0,000704694465776941;
0,000565091120937257;
0,000496804805428492;
0,000481914267046532;
0,00045129101547815;
0,000350384716881424;
0,000199636086760032;
9,37743765723513E-5;
0,000133883571039882;
0,00034316817219475;
0,000634271078382685;
0,000857782348478107;
0,000898336003573515;
0,000747180300943223;
0,000498398229297361;
0,000275127560249584;
0,000144707366782627;
8,63460885718028E-5;
2,96884014929514E-5;
-7,43670658591371E-5;
-0,000211760442823773;
-0,000324728222426398;
-0,000370917416384656;
-0,000366846906869904;
-0,000375175044345466;
-0,000445176382312281;
-0,000558234957726446;
-0,000628678768887968;
-0,000565317405614812;
-0,000347533457213467;
-5,46468737833919E-5;
0,000178070407505772;
0,000246233822004454;
0,000141802698411381;
-5,0426415494213E-5;
-0,000219430804197859;
-0,000304473361274434;
-0,000324230087595148;
-0,000342067665027095;
-0,000402333636893534;
-0,000492685544116334;
-0,000561572420151081;
-0,00057128088556061;
-0,000536851915567567;
-0,000514550346619224;
-0,00054844519327896;
-0,000621633912009551;
-0,000657173378498031;
-0,000573373121328979;
-0,000351972546199285;
-6,43076202869199E-5;
0,000168248422568494;
0,000252118630610826;
0,000180079708829995;
2,80377462571309E-5;
-0,000104616800116852;
-0,000163432705580179;
-0,000164924820713556;
-0,000165574728557649;
-0,000204993171314947;
-0,000272339404834708;
-0,000321894583552941;
-0,000320261294640567;
-0,000280914801079484;
-0,000253847102514694;
-0,000278029465454082;
-0,0003381381740803;
-0,000365551054375975;
-0,000287613454028826;
-8,82062817476527E-5;
0,00950257345114647;
0,0230062519257636;
0,0168235762162361;
0,00981881936538561;
0,0124179977401298;
0,00715393402808794;
0,00570648634225449;
0,00464861479623077;
0,000901124712054076;
0,0010531951310502;
-0,00123453174856404;
-0,00208579948742494;
-0,00290626187646805;
-0,00462554745246052;
-0,00494338852885627;
-0,0059417384820886;
-0,00608860983521679;
-0,00636253829064805;
-0,00711333456716061;
-0,00787311718305018;
-0,00908297931993006;
-0,00980274523983778;
-0,0100213496606163;
-0,00967716533851317;
-0,0089055491654103;
-0,00824318609893377;
-0,0077013541593277;
-0,00734190138794366;
-0,00694506644685519;
-0,00635805046384498;
-0,00567880513805515;
-0,00501243627034882;
-0,00451876115745113;
-0,00413981962135477;
-0,00370625650840481;
-0,00310197991055858;
-0,00236394341667238;
-0,0017430353461957;
-0,00148408013587533;
-0,00164716699750317;
-0,00202173631103484;
-0,00223531222080407;
-0,00200918137311618;
-0,00132055872687206;
-0,000404160637235725;
0,000433758867883084;
0,00102713118669584;
0,00142491250191594;
0,00180119201003389;
0,00227630961182478;
0,00281503445018944;
0,00327479399948246;
0,00355044622351181;
0,00368332214480638;
0,00382838895606741;
0,00410777993879561;
0,00447589488086006;
0,00472115463708752;
0,00461866891066045;
0,00411797195800481;
0,00341587039649756;
0,00284748258080341;
0,00267133137106242;
0,00290762559250556;
0,00334698400676741;
0,00371553404339216;
0,00386422509040077;
0,00384069159765937;
0,00380298316633616;
0,00386152596538881;
0,00398588495883572;
0,00404833405575613;
0,00395566347873217;
0,0037458955736989;
0,00355973559920963;
0,00350798717626633;
0,00355033263449329;
0,0034973691452978;
0,00314754797954421;
0,00245619103568475;
0,0016004313506843;
0,000881206865192948;
0,000530394841737015;
0,000565833459199511;
0,000799618029240422;
0,000986242847106427;
0,000992234524937051;
0,000860265993162454;
0,000731612161919076;
0,000704661068199762;
0,000751609913562141;
0,000757667677145;
0,000638999482306416;
0,000429084460677297;
0,000253082520381317;
0,000209375250065539;
0,000261466603305252;
0,000239957229899235;
-3,52670334960154E-5;
-0,000604489029287262;
-0,0106439824988864;
-0,0245160529872394;
-0,0184991454602551;
-0,0114489759391659;
-0,0138919925411321;
-0,0084915085175148;
-0,00699792349677696;
-0,00596114989040455;
-0,00222701021621057;
-0,00233312881873544;
4,38896585134717E-5;
0,000965519093240055;
0,0017918462773134;
0,0034696829742213;
0,00376508537441362;
0,00481248278753785;
0,00506099585918737;
0,00539975400650297;
0,00608321056016742;
0,00662175655383711;
0,0075388096924582;
0,00803435006087736;
0,00820475249651594;
0,00799542507385528;
0,00745277167956729;
0,00699831257154996;
0,00658127614994058;
0,0062840074888131;
0,00595283112615583;
0,00548012237432895;
0,00494935708518073;
0,00441038925594733;
0,00398263017582893;
0,00362311954682173;
0,00322089100612692;
0,00270619209778066;
0,00209969063413413;
0,00157409745960111;
0,00129079772793799;
0,00129090616161095;
0,00143592558957159;
0,0014759347082851;
0,00122604237609401;
0,000669489210222877;
-3,67146405134166E-5;
-0,000686650065618537;
-0,00116797370504021;
-0,00151127312981309;
-0,00183266612338232;
-0,00221303853168566;
-0,00262992331097334;
-0,00298908524873144;
-0,00322066070108922;
-0,00335281931053243;
-0,00348943598886634;
-0,00371193664305245;
-0,00398843109261148;
-0,00417484626260431;
-0,00411842447683915;
-0,00378498894680163;
-0,00330882446792954;
-0,00291892226968844;
-0,00279267299318528;
-0,00294513926686722;
-0,00323406954543949;
-0,00347203832101797;
-0,00355596634927334;
-0,00351717063818146;
-0,00346337498182574;
-0,0034709351714917;
-0,00352059736426035;
-0,00352653126572757;
-0,00342605863823958;
-0,00324583414645945;
-0,00308238913254463;
-0,00301120107049486;
-0,00300339209137605;
-0,00292724687362119;
-0,0026429383875451;
-0,0021196961324381;
-0,00148112777697049;
-0,000937438259068938;
-0,000651278212310769;
-0,00063626155418482;
-0,000761902553583634;
-0,000856382906112545;
-0,00082516259489414;
-0,000696668017166523;
-0,000569093328793407;
-0,000511871487824445;
-0,000507009175177741;
-0,000475726895116089;
-0,000360418707431278;
-0,000184972459200093;
-3,69119528268733E-5;
1,55876251552924E-5;
-4,52500332004026E-7;
3,56351631003675E-5;
0,000251756038317703;
0,00067638877419724;
0,00119750640106603;
0,00162443884787114;
0,00180996289867472;
0,00174247315568218;
0,00154130382972637;
0,00136321936655114;
0,00129468552601212;
0,00131049664043042;
0,00132216280362087;
0,00126731098027625;
0,00116281074866902;
0,00108054242157108;
0,00107312722347207;
0,00111937820046617;
0,00114057196188614;
0,00107557474437685;
0,000949365070542076;
0,000871484094003987;
0,000957841916432108;
0,00123439060714988;
0,00160018513101599;
0,00188339718823628;
0,00195154461305968;
0,00179454169515981;
0,00152031452595326;
0,00127039843339832;
0,00112287830059525;
0,00105522456995414;
0,000987951817160889;
0,000865087894022401;
0,00070189841367039;
0,000563025939804899;
0,000495733618674854;
0,000480975919426441;
0,000448106899119619;
0,000342342902282602;
0,000186166536715446;
7,78045310760908E-5;
0,000121043921873245;
0,000338950773868266;
0,000640927357447585;
0,000873017589965035;
0,000916614916150319;
0,000762681336293093;
0,000507677538955411;
0,00027800767163985;
0,000143294327892058;
8,32725289532202E-5;
2,68562404307377E-5;
-7,60332095742993E-5;
-0,000211952169549697;
-0,000323492349375249;
-0,000368781826318208;
-0,000365003817766495;
-0,000375211708308454;
-0,000448257189778339;
-0,000564231492830054;
-0,000635940093511201;
-0,000571365821237385;
-0,000350295269002999;
-5,34438844057375E-5;
0,000182340276970403;
0,000251711902483812;
0,000146583906524677;
-4,76167875526106E-5;
-0,000219004109216819;
-0,000306053719894522;
-0,000326836426894184;
-0,000344363442773098;
-0,000403030851483633;
-0,000491079699274458;
-0,000557942006620397;
-0,000566808235108436;
-0,000532989449810345;
-0,000512200227150005;
-0,000547543172473195;
-0,000621468429912125;
-0,000657186056676924;
-0,000573762735032393;
-0,00035355999651017;
-6,77456796055368E-5;
0,000163239993531734;
0,000246783035205399;
0,000175817058417883;
2,54081268464725E-5;
-0,000106213645145387;
-0,000165074263386439;
-0,000167027118885036;
-0,000167294672914499;
-0,000204758031916732;
-0,00026912396249041;
-0,000316167929885072;
-0,000313737504331774;
-0,000275244359509104;
-0,000249346736710013;
-0,000273607967643139;
-0,000332606366629361;
-0,000359273794669283;
-0,000283028896807596;
-8,85498750652051E-5;
0,000162105799325376;
0,00036405677072564;
0,000436761020660726;
0,000374178614190297;
0,000241683401657508;
0,000124717688092906;
7,02160049132598E-5;
6,44678665541883E-5;
5,96215639075036E-5;
2,20215687525191E-5;
-3,93727704079249E-5;
-8,62485962349907E-5;
-9,07826652878367E-5;
-6,45727255259935E-5;
-4,96413869276969E-5;
-7,83515845466101E-5;
-0,000137269930224196;
-0,000168423030350978;
-0,000110905024245708;
4,84528720094252E-5;
0,000256120586444274;
0,000421756406174574;
0,000476082153118484;
0,000413994406143099;
0,000291795996397519;
0,000182975454274527;
0,000127881118763106;
0,000114777944369684;
0,000102657062936063;
6,27021887237806E-5;
2,60272511934552E-6;
-4,48562879312416E-5;
-5,59040700442688E-5;
-4,04795505183357E-5;
-3,4471760393486E-5;
-6,54525836568786E-5;
-0,000121878299837361;
-0,000154258183447506;
-0,000110697316168623;
1,99496213251353E-5;
0,000192033631367662;
0,000328658219937649;
0,000370942702232485;
0,00031460782899092;
0,000207515928867873;
0,000112054548919221;
6,24447196662742E-5;
4,87450884426308E-5;
3,62388106255288E-5;
5,48547090457445E-7;
-5,18385697771198E-5;
-9,32659408006272E-5;
-0,000103724674004763;
-9,16461129346973E-5;
-8,72896733326942E-5;
-0,000113840790464539;
-0,000161526286826958;
-0,000188692356172684;
-0,000151756484402558;
-4,1445870792094E-5;
0,000103831516408517;
0,00021953072754588;
0,000256311721034292;
0,000210633520625467;
0,000122588522313541;
4,43586721815031E-5;
4,53164548660297E-6;
-5,1966328023671E-6;
-1,37807139047073E-5;
-4,1535330219901E-5;
-8,30783460978938E-5;
-0,0001154498694252;
-0,000122082150116416;
-0,000110024280647528;
-0,000104386208065028;
-0,000124345919929543;
-0,000161752602890232;
-0,000182113306919473;
-0,000149431618197371;
-5,61331410656612E-5;
6,59950162450209E-5;
0,000163685610989853;
0,000196304181975694;
0,000160985130983451;
9,07433713986646E-5;
2,84698471253755E-5;
-2,369869295048E-6;
-8,58179919794553E-6;
-1,3870289207624E-5;
-3,48472298015532E-5;
-6,71248702686137E-5;
-9,19985357059382E-5;
-9,60122452922616E-5;
-8,49475403165703E-5;
-7,92318260043656E-5;
-9,44020961048696E-5;
-0,000123774532443051;
-0,000139340789095306;
-0,000111967299917965;
-3,56031977854352E-5;
6,3974323280404E-5;
0,000143717311567522;
0,000170875250792109;
0,000143198222386367;
8,73074590886577E-5;
3,77036201185536E-5;
1,32319730363021E-5;
8,44537561477604E-6;
4,38367655460355E-6;
-1,22186837912672E-5;
-3,78636750293513E-5;
-5,76736380521582E-5;
-6,09871394469922E-5;
-5,24364503774099E-5;
-4,82292055637713E-5;
-6,06252235700323E-5;
-8,42611363968248E-5;
-9,6958567996945E-5;
-7,57478733200567E-5;
-1,59393958577677E-5;
6,20950885601573E-5;
0,000124487207499936;
0,000145562896571359;
0,000123623392192216;
7,95552703949006E-5;
4,03380121753892E-5;
2,06769518025065E-5;
1,63411211669889E-5;
1,26159629845046E-5;
-7,70799059682091E-7;
-2,11164787728711E-5;
-3,69627353938918E-5;
-4,01428080400507E-5;
-3,42612887526721E-5;
-3,17601533257118E-5;
-4,19794078918845E-5;
-6,07396148299149E-5;
-7,10652728026816E-5;
-5,54816806610493E-5;
-1,05099699331142E-5;
4,82945390864263E-5;
9,52356946257171E-5;
0,000110933857851396;
9,41760793096807E-5;
6,07456234467596E-5;
3,09338331573546E-5;
1,57648849162475E-5;
1,20839159426612E-5;
8,9404895218879E-6;
-1,28555613575308E-6;
-1,65984405580151E-5;
-2,85703152003131E-5;
-3,12437381816889E-5;
-2,73137863125041E-5;
-2,58925901342407E-5;
-3,37426242117495E-5;
-4,77376720329686E-5;
-5,5505544224977E-5;
-4,44276054122315E-5;
-1,20928184886762E-5;
3,019706228444E-5;
6,39568662296379E-5;
7,53563193261583E-5;
6,36073957807102E-5;
3,99932599158814E-5;
1,89120265094891E-5;
8,14479484757266E-6;
5,48087861622706E-6;
3,27755196354901E-6;
-3,75593268981983E-6;
-1,42450948827797E-5;
-2,24218701896676E-5;
-2,4265918158924E-5;
-2,16734192872664E-5;
-2,08380595288235E-5;
-2,6266894259001E-5;
-3,57605563324299E-5;
-4,09800482286403E-5;
-3,35562224815999E-5;
-1,20092546247925E-5;
1,60815362713E-5;
3,85347675262407E-5;
4,63675027955113E-5;
3,91614942739656E-5;
2,427170884782E-5;
1,0955390072929E-5;
4,16575210265179E-6;
2,5136908582091E-6;
1,23579747604651E-6;
-2,93155072481035E-6;
-9,15304336683595E-6;
-1,39702132546113E-5;
-1,5042617327143E-5;
-1,35704487496319E-5;
-1,32143052319383E-5;
-1,65268585423024E-5;
-2,21152528501678E-5;
-2,51370756483335E-5;
-2,09025690197889E-5;
-8,73453496672919E-6;
0,00934044649812265;
0,0226493408467093;
0,0163970059279752;
0,00945398237534897;
0,0121828184868644;
0,0070328785732055;
0,00563807114800685;
0,00458508339039438;
0,000842285244380908;
0,00103236325504085;
-0,00119313602892811;
-0,00199669418747211;
-0,00281240082877867;
-0,0045585453236824;
-0,00489235359000412;
-0,00586253693154256;
-0,00595020548354716;
-0,00619272743504724;
-0,00700242502702613;
-0,0079255259785511;
-0,00934864271723372;
-0,0102385977893312;
-0,0105123977355178;
-0,0101026729603751;
-0,00920305935875976;
-0,00842689112915292;
-0,00782774734281237;
-0,00745510327043253;
-0,00704577918006538;
-0,00641630799259076;
-0,00567281937110364;
-0,00495562325173965;
-0,00445034210662914;
-0,00408859752860371;
-0,00366231559405047;
-0,00302527071240151;
-0,00222659515996608;
-0,00157098725688231;
-0,00136028617140283;
-0,00166734397296245;
-0,00223181033922003;
-0,00259636095722437;
-0,00241670009474627;
-0,00166478471776521;
-0,000628387181133223;
0,000316430177906481;
0,000964992717472678;
0,00137734444395082;
0,00176692236298636;
0,00228194316781658;
0,00287991293652537;
0,00338654900327743;
0,00367350410465598;
0,00379162952379193;
0,00393090438787267;
0,00424058167453774;
0,00466385035925172;
0,0049403232073695;
0,00479353677172398;
0,00416158738520207;
0,00328643981906759;
0,00258002452740131;
0,00236020425142353;
0,00265198245808748;
0,00319807695804699;
0,00366155445371428;
0,00385841754074972;
0,00384615851115278;
0,00381820403076288;
0,00391012313669665;
0,00408509382038185;
0,00418706671410051;
0,00410214042240155;
0,00387696881668917;
0,00368366041585173;
0,00365722407065162;
0,00374710336893988;
0,00371997767750284;
0,00332802061665999;
0,00251638354509603;
0,00150282006936744;
0,000657237752478954;
0,00026476782700231;
0,000347584353303785;
0,000674886607346226;
0,000944662638438099;
0,000992052533544851;
0,000868405690396262;
0,000746529805057943;
0,000747295613937972;
0,000837331204877493;
0,000876758460537511;
0,000763444928975308;
0,000538623071425415;
0,000355372394771393;
0,00033348203575656;
0,000427170952567562;
0,000427841509732097;
0,000114193189946469;
-0,000563030821566382;
-0,0107438799044738;
-0,0247292602617005;
-0,0187502330268825;
-0,0116586294186477;
-0,0140189885749288;
-0,0085448326182188;
-0,00701452139416023;
-0,00597041334521749;
-0,00223047950516336;
-0,0023124196188127;
0,000102352177174604;
0,00105328887896321;
0,00188444262698418;
0,00354952585996311;
0,00383918996266755;
0,00490661672204625;
0,005192571127779;
0,00555149791921898;
0,00620151671096631;
0,006645170845012;
0,00743789437306961;
0,0078338396872504;
0,00797116636623908;
0,00779873459024059;
0,00732943111604083;
0,00694056458830748;
0,0065566743598545;
0,00626660911647395;
0,00594105967397484;
0,00548989646041673;
0,00499249177425685;
0,0044795644046334;
0,00405661753592015;
0,00368677857859015;
0,00328053901560146;
0,00278440690635532;
0,00221159504199981;
0,00170441077483237;
0,00139249356736098;
0,00131016689027301;
0,00134696517050375;
0,0013003084157284;
0,00102180250747956;
0,000497732211218733;
-0,000144092145812481;
-0,000736300589457818;
-0,00118814156067208;
-0,00152467071351419;
-0,00184090750444009;
-0,00220252706615966;
-0,00259051310569945;
-0,00292707092986782;
-0,00315426160156156;
-0,0032949334999641;
-0,00343443790157017;
-0,0036402587662062;
-0,003887096737586;
-0,00405725688661006;
-0,00402542633493028;
-0,00376323618497866;
-0,00338067954178423;
-0,00306580726000577;
-0,00296446436807368;
-0,00308905181347227;
-0,00332247889456893;
-0,00351056980341167;
-0,00356893098203917;
-0,0035242401211198;
-0,00346616254066527;
-0,00345797450346428;
-0,00348327544314856;
-0,00347018112841422;
-0,00336610448389509;
-0,00319309673596955;
-0,00303188890521462;
-0,00294615815772911;
-0,00291279802203096;
-0,0028227199731625;
-0,00255954482161715;
-0,00209740326732843;
-0,00153909358916465;
-0,00105983048443698;
-0,000795319370507507;
-0,000756870319012443;
-0,000835412934817342;
-0,000887461480016;
-0,000834459018181321;
-0,000701007488555849;
-0,000570048974650001;
-0,000499910551950978;
-0,000474911168628557;
-0,000427928009125422;
-0,000309765957973253;
-0,000140377352999;
6,00571516486208E-6;
7,10445296307622E-5;
7,67578144326495E-5;
0,000124653042810669;
0,000322871824230521;
0,000695820473312971;
0,00114906453887781;
0,00152143664181951;
0,00168841770470778;
0,00164037303692967;
0,00147866626508158;
0,00133625466772832;
0,0012861137565012;
0,00130612410227626;
0,00132047723646299;
0,00127609249260841;
0,00118801283715286;
0,00111854636048527;
0,00111343123869335;
0,00115479956935849;
0,00117492706772675;
0,00112072979768375;
0,00101289927072353;
0,000944995230304573;
0,00101653318975316;
0,00125014515298104;
0,00155953089215257;
0,00179734409653243;
0,00184992779861549;
0,00170885928428508;
0,00146723730803501;
0,0012469223630451;
0,00111479075576302;
0,00105073634761642;
0,000985619562502547;
0,000871107795431547;
0,000721072748413841;
0,000592468008175781;
0,000527052183400884;
0,000508534869959178;
0,000475191071837176;
0,000378674883251187;
0,000237842730290653;
0,000137831867742529;
0,000169092375672027;
0,000352048246621715;
0,000608067434207145;
0,000803118936607549;
0,000833901876372399;
0,000692759377543339;
0,000464170331947706;
0,000258607899197174;
0,000136558474622296;
7,95908435990877E-5;
2,48601633617204E-5;
-7,1566788248595E-5;
-0,000197257895001459;
-0,000300805979536032;
-0,000344609706199271;
-0,00034360864397814;
-0,000353803601658033;
-0,000419051012175614;
-0,000522462617486022;
-0,000587323019841023;
-0,000532199096777991;
-0,000338913129762729;
-7,86301644270742E-5;
0,000127624157785988;
0,000186642347091034;
9,14620640360555E-5;
-8,19165130403181E-5;
-0,000234173806172007;
-0,000311054393220688;
-0,000329315070181807;
-0,000345606703180821;
-0,000399519572241509;
-0,000479971585174701;
-0,000540895999258649;
-0,000548658772547157;
-0,000516787522270283;
-0,000495610046232273;
-0,000524513481758179;
-0,000588417891803739;
-0,000618675622696727;
-0,000542479352189885;
-0,000343688559104932;
-8,60801427644195E-5;
0,000122064860513747;
0,000197442351181148;
0,000133879036660604;
-7,11133592783524E-7;
-0,000117666428308788;
-0,000168613234463648;
-0,00016854471000566;
-0,000167989357817221;
-0,000202213579562692;
-0,000261311244888463;
-0,000304238376213132;
-0,000301055114429318;
-0,000263800381928883;
-0,0002372179127145;
-0,000256280820935287;
-0,000307540950575831;
-0,00032999846292077;
-0,000259022314224531;
-8,03161019285272E-5;
0,000149539540827944;
0,000334579942378622;
0,000401070262338824;
0,000343655802690634;
0,000222565092990207;
0,000116319979711139;
6,77326097973326E-5;
6,35607424658796E-5;
5,91838410744968E-5;
2,35114874524199E-5;
-3,46361812370234E-5;
-7,8975317836815E-5;
-8,30569088699551E-5;
-5,74692986693314E-5;
-4,16095924021921E-5;
-6,6230188087738E-5;
-0,000119427444697123;
-0,000147472290096156;
-9,3501272524699E-5;
5,5040242619208E-5;
0,000248418062748517;
0,000402363728138281;
0,000452211885321531;
0,000393359277279404;
0,000278716889616584;
0,000177169278930068;
0,00012623955013406;
0,000114326367206301;
0,000102380893386807;
6,32360116390448E-5;
4,6511879440215E-6;
-4,16242173934996E-5;
-5,2471679168394E-5;
-3,71391376350663E-5;
-3,0007054271729E-5;
-5,78804032007542E-5;
-0,000110351884616012;
-0,000140586737337709;
-9,90761864819349E-5;
2,50650104485609E-5;
0,000188522350819855;
0,000318004378486756;
0,000357338692403972;
0,000302582856314636;
0,000199723374814745;
0,000108549347677024;
6,15836450092984E-5;
4,87370911734132E-5;
3,61605881377046E-5;
3,35191941971692E-7;
-5,20079528550628E-5;
-9,34013745637542E-5;
-0,000103874283641957;
-9,14431858412897E-5;
-8,5815646419895E-5;
-0,000110127743641233;
-0,00015539727840335;
-0,000181258227205682;
-0,000145092510373987;
-3,75862065211745E-5;
0,000103930799324141;
0,000216400187204752;
0,000251555802799125;
0,000206050603890501;
0,000119396470466703;
4,28931309553731E-5;
4,3985090041897E-6;
-4,77234882900922E-6;
-1,36329923499232E-5;
-4,23143036354266E-5;
-8,50482565581838E-5;
-0,00011835264573681;
-0,000125182798970884;
-0,000112409755192443;
-0,00010540038059041;
-0,000123884936909722;
-0,000160203255273634;
-0,000179986064707748;
-0,000146996554702202;
-5,33666244757046E-5;
6,91280836212356E-5;
0,000166911994139983;
0,000199039877013774;
0,000162716383992135;
9,1467675624007E-5;
2,87516976694126E-5;
-1,87413550882827E-6;
-7,7858371386253E-6;
-1,352150316185E-5;
-3,60766696487775E-5;
-7,05647340626315E-5;
-9,7170659513506E-5;
-0,000101536967150728;
-8,94675610541601E-5;
-8,23200036247947E-5;
-9,66794747687011E-5;
-0,000126094571415697;
-0,000141704207921175;
-0,000113128560237898;
-3,38148119141684E-5;
0,00940301302391383;
0,0227819281105165;
0,0165525635175315;
0,00958327349684292;
0,0122606813712162;
0,00706560276058655;
0,00564905588163615;
0,00459224288496312;
0,000845387539191966;
0,00101857609071794;
-0,00123293384548615;
-0,00205663515315761;
-0,00287561200851713;
-0,00461237513064936;
-0,00494035156189453;
-0,00592108228898934;
-0,00603102593928245;
-0,00628555983437068;
-0,00707350614167462;
-0,00793572639063392;
-0,00927922578163388;
-0,0101056661549901;
-0,010358928734418;
-0,00997364036818504;
-0,00912146572006762;
-0,00838704378335262;
-0,00780834119243895;
-0,00743981757067803;
-0,00703481327030657;
-0,00642133243788058;
-0,00570213292848775;
-0,00500389834848665;
-0,00450225193164128;
-0,0041326558743572;
-0,00370175198112292;
-0,0030749537144223;
-0,0022971517804112;
-0,00165307042184185;
-0,0014232221873335;
-0,00167559697275071;
-0,00216834349662392;
-0,00247572281034768;
-0,00227779457186063;
-0,0015483286360882;
-0,000555208749209255;
0,000351473230496355;
0,000981174301650652;
0,00138944387627002;
0,00177479710462907;
0,00227508805608241;
0,00285085932354781;
0,00334011490772435;
0,00362351816538228;
0,00374845238663983;
0,00389163516464187;
0,00419184294558684;
0,0045960993492386;
0,004862012367127;
0,00473231655545209;
0,004149477864153;
0,0033388140555355;
0,00268384901977327;
0,00248054827355398;
0,00275227892107764;
0,00325961359927119;
0,00368893131222686;
0,00386892152535396;
0,00385305636859073;
0,00382139350434249;
0,00390021603969845;
0,00405541270243622;
0,00414192085572549;
0,00405389145203699;
0,003834872151255;
0,00364511848818207;
0,00361028659115562;
0,00368325783385906;
0,00364678989359751;
0,00327019548497662;
0,00250252107207186;
0,00154666501935115;
0,000747199916136038;
0,000369733095721866;
0,000434972294840796;
0,000728009951545304;
0,000967583989051347;
0,00100012905248448;
0,000873430447150812;
0,000748420645211977;
0,000737720283724883;
0,000810356469536672;
0,000836191206067212;
0,000720226523046339;
0,000500937243160484;
0,000320900963048367;
0,000291630379457808;
0,000370400612262192;
0,000362855881252942;
6,28646633458206E-5;
-0,000575386746854398;
-0,0107050869906808;
-0,0246495391007147;
-0,0186570592577247;
-0,0115807819682981;
-0,0139712253933457;
-0,00852360649779604;
-0,00700631853972172;
-0,00596484974339445;
-0,00222762341939452;
-0,00231960252246144;
7,99026006926424E-5;
0,0010189012242655;
0,00184770918888523;
0,00351761370727568;
0,00381004763550146;
0,00487093724338773;
0,00514374027831458;
0,00549540060361417;
0,00615733920214954;
0,00663511545626029;
0,00747265147149661;
0,00790448650746876;
0,00805367359006479;
0,00786792438605262;
0,00737237628261755;
0,00696033193795066;
0,00656504192408325;
0,00627263445487592;
0,00594469068794553;
0,00548474909415007;
0,00497400821575606;
0,0044506284970576;
0,00402555754274362;
0,00365981110405162;
0,00325586984049888;
0,00275394572677736;
0,00216960103239935;
0,00165600269536379;
0,00135433613262718;
0,00130154020262316;
0,00137716639538126;
0,0013616353629988;
0,00109346290657726;
0,000557930772838608;
-0,000106559754717644;
-0,000718810900061751;
-0,00118053672876337;
-0,00151913131790292;
-0,00183746816966378;
-0,00220668342757988;
-0,00260619352238046;
-0,00295180293118541;
-0,00318089291224997;
-0,0033181305308182;
-0,00345575121064131;
-0,00366664105338635;
-0,00392347281683443;
-0,00409922161598641;
-0,00405866498487582;
-0,00377119168553497;
-0,00335535338451633;
-0,00301376662279425;
-0,00290348962488747;
-0,00303779057636339;
-0,00329053073208892;
-0,00349572003644852;
-0,00356252472033853;
-0,00351960728177259;
-0,00346332249568686;
-0,00346159972474311;
-0,0034967107363663;
-0,00349133443158237;
-0,00338891173058781;
-0,00321304104337523;
-0,00305029492086278;
-0,00296892636192508;
-0,00294409967421465;
-0,00285881181359809;
-0,00258828707134826;
-0,00210475840902168;
-0,00151826647932844;
-0,00101634383673411;
-0,000744175947895099;
-0,000713814130883101;
-0,000808562552526058;
-0,000874977715512175;
-0,000829071537744775;
-0,000697106010866687;
