0,00932688177410222;
0,0226198577978234;
0,0163622447748652;
0,00942496256259364;
0,0121651989281461;
0,00702543249458528;
0,00563580256411646;
0,00458400438911638;
0,000842060937270351;
0,0010352316639129;
-0,00118555115788738;
-0,00198551404658393;
-0,00280066306662123;
-0,00454833626889151;
-0,00488271461194173;
-0,00585030900752203;
-0,0059333699463722;
-0,00617348297484479;
-0,00698720817535633;
-0,00792151927449064;
-0,00935913728787566;
-0,0102605951913057;
-0,0105382236936123;
-0,0101244167678497;
-0,00921666882959673;
-0,00843322866091649;
-0,00783035143515375;
-0,00745680472039951;
-0,00704684863592729;
-0,00641522155242535;
-0,00566847562354368;
-0,00494880210753194;
-0,00444311404420313;
-0,00408235506208611;
-0,00365637079327672;
-0,0030174691850689;
-0,00221559673595623;
-0,0015583166888807;
-0,00135029292676099;
-0,00166482405339724;
-0,00223892140311892;
-0,00261108137200673;
-0,00243395263395535;
-0,00167937946336672;
-0,000637680140159804;
0,000311889465016134;
0,000962932723450309;
0,00137594012659364;
0,00176595723542966;
0,00228231781746618;
0,00288227212688205;
0,00339040650506449;
0,00367762608578064;
0,00379522187001623;
0,00393441612027632;
0,00424529264793503;
0,00467051095963362;
0,00494799275541005;
0,00479967439324401;
0,00416346375312889;
0,0032828775346551;
0,00257219859250548;
0,00235094422021722;
0,00264412457719254;
0,00319304660268885;
0,00365907032155678;
0,00385730033916296;
0,00384545080105229;
0,00381773736201876;
0,00391026289082593;
0,00408609274959567;
0,00418869118105863;
0,00410387485283865;
0,00387853188740988;
0,00368529515579985;
0,00365946011212258;
0,00375018678266569;
0,0037234707795501;
0,00333093438245465;
0,00251776013610924;
0,00150232229006449;
0,000655317451776563;
0,000262333980476878;
0,000345462857667064;
0,000673462358356316;
0,000943883036402215;
0,000991670038956913;
0,000868203751789775;
0,000746383554087456;
0,000747117968849125;
0,000837043806828339;
0,000876343222938472;
0,000762995939330019;
0,000538293505329409;
0,000355230498639448;
0,000333422694357691;
0,000427015210037132;
0,000427579882048608;
0,000114151401489429;
-0,000562311660700274;
-0,0107420260772423;
-0,0247264292390256;
-0,0187471349130629;
-0,0116561323809688;
-0,0140175843018485;
-0,00854438175511339;
-0,00701448795250182;
-0,00597039024331931;
-0,00223055290579346;
-0,00231305382779148;
0,000100802843181208;
0,00105098710104044;
0,00188199173510419;
0,00354744097803624;
0,00383739244950726;
0,00490447177468638;
0,00518954647743802;
0,00554794265554676;
0,00619885298284182;
0,00664518804785282;
0,00744155777971012;
0,00784048576299712;
0,00797874088104098;
0,00780496373372681;
0,00733309565642589;
0,00694196147043797;
0,0065569868761339;
0,00626676001190511;
0,00594099607117043;
0,00548884451244797;
0,00498987063504141;
0,0044756850834436;
0,0040525004947909;
0,0036832342625155;
0,00327736673902851;
0,00278053718505895;
0,00220620686799922;
0,00169814780308617;
0,00138767524154688;
0,00130960251635131;
0,00135210264172805;
0,00131007145604517;
0,00103304197678912;
0,00050703008108651;
-0,000138547665164077;
-0,000734086272059301;
-0,00118755044339871;
-0,00152436244072884;
-0,00184090687043072;
-0,0022038564743863;
-0,00259393539617256;
-0,00293215615547747;
-0,00315965537473019;
-0,00329959014717086;
-0,00343865761366628;
-0,00364545988495884;
-0,00389433074341337;
-0,00406564334712462;
-0,0040319281230133;
-0,00376422994915697;
-0,00337433287561564;
-0,00305352500894423;
-0,00295026601045157;
-0,00307726404989833;
-0,00331538431729637;
-0,00350764673657636;
-0,00356805964947914;
-0,00352375046827056;
-0,00346605582697211;
-0,00345946682173275;
-0,00348727148165746;
-0,00347615808500605;
-0,00337244829185081;
-0,00319857997168176;
-0,00303689073013783;
-0,00295236864512814;
-0,00292144677396122;
-0,00283274133981163;
-0,00256734450820841;
-0,00209872779478247;
-0,00153181356231115;
-0,00104560394712802;
-0,000778835378645845;
-0,000743153713824104;
-0,00082710814573987;
-0,000883972868938219;
-0,000833352553189272;
-0,000700361579460552;
-0,000569845312690754;
-0,000501510009817683;
-0,000479324445104461;
-0,000434562463104274;
-0,000316813607345144;
-0,000146476283865454;
4,15823575087361E-7;
6,40704837219342E-5;
6,70384111963155E-5;
0,000113393412983353;
0,000314081076846895;
0,000694219169343725;
0,00115700149548757;
0,00153706736781672;
0,00170656131886897;
0,00165549293989119;
0,00148785271175559;
0,00134015576674016;
0,00128739080603943;
0,00130688118468773;
0,00132074864521792;
0,00127441562753202;
0,00118330253099883;
0,00111144483239484;
0,00110588252724595;
0,0011482585381916;
0,00116890981243963;
0,00111320035377815;
0,00100240566071031;
0,000932841738678878;
0,0010070185091194;
0,00124831357942483;
0,00156788242900763;
0,00181390624524392;
0,00186918366623304;
0,00172492388665136;
0,00147702020584612;
0,0012511053723847;
0,0011161863109061;
0,00105157055038397;
0,000985939403174068;
0,000869386410747758;
0,000716177951783046;
0,000585073872437314;
0,000519188347134618;
0,000501712975748986;
0,000468897205068356;
0,000370782839307235;
0,000226845212134874;
0,000125097069972685;
0,000159099483417194;
0,000350040506082896;
0,00061663657796963;
0,000820215095333574;
0,00085380735086801;
0,000709382556726333;
0,000474313534503532;
0,000262970474907466;
0,000138038079943136;
8,04831960810367E-5;
2,52219967621583E-5;
-7,32943250515458E-5;
-0,000202230353963984;
-0,000308332728853425;
-0,000352618991554503;
-0,000350563173128174;
-0,000360234990037985;
-0,000427130426128578;
-0,000533722194134274;
-0,00060036107299874;
-0,000542449901708689;
-0,000341041909765473;
-7,00046496190549E-5;
0,000144920140647626;
0,000206806318479343;
0,000108317456080835;
-7,16115352881914E-5;
-0,000229716096585526;
-0,000309517431956057;
-0,000328378368833657;
-0,000345206376721191;
-0,000401218948480795;
-0,000484929409089007;
-0,000548418085604751;
-0,000556668238388818;
-0,00052374784438301;
-0,000502059961294733;
-0,000532630545058442;
-0,000599733166335459;
-0,000631779850257216;
-0,000552800180649316;
-0,000345890966700663;
-7,75348471678471E-5;
0,000139276832990822;
0,000217532069083247;
0,000150688069085697;
9,58474147929521E-6;
-0,000113188236183206;
-0,000167044880390635;
-0,000167578796164772;
-0,000167557089660295;
-0,000203859631693724;
-0,000266180576665944;
-0,000311644151507514;
-0,000308946329501345;
-0,000270663369049158;
-0,000243589567480665;
-0,000264312677702952;
-0,000318741280636078;
-0,000342972217252356;
-0,000269257511265019;
-8,25539534796961E-5;
0,00949132290101784;
0,0229811986676737;
0,0167935427074142;
0,00979327918473357;
0,0124020977334459;
0,00714692018893512;
0,00570412434159909;
0,00464724995614079;
0,000900139422464623;
0,00105432877396596;
-0,00122979846719962;
-0,00207812797274793;
-0,00289787149491814;
-0,0046178332664011;
-0,00493514980851959;
-0,00592997743214368;
-0,00607159018528417;
-0,00634264218349815;
-0,00709709922870318;
-0,0078679047450278;
-0,00909241123276055;
-0,00982415519683907;
-0,0100471370707531;
-0,00969911227382229;
-0,00891908262782966;
-0,00824879513344122;
-0,00770263559404165;
-0,00734216687885749;
-0,00694520181012227;
-0,00635693182892625;
-0,0056753324808484;
-0,00500703389858336;
-0,00451294042122431;
-0,00413434176492231;
-0,00369982815776848;
-0,00309202741379316;
-0,00234916090158924;
-0,00172567317729775;
-0,00146985470696537;
-0,00164239775151386;
-0,00202950888385878;
-0,00225336230890177;
-0,0020310412950741;
-0,00133918051960939;
-0,000415517652772292;
0,000429406738080366;
0,00102677308028689;
0,00142557196779249;
0,00180177147710053;
0,00227740115842514;
0,00281740307914034;
0,00327821960260398;
0,00355403176236851;
0,00368684799287568;
0,00383320760108603;
0,00411607312164301;
0,00448858961813912;
0,0047361436023455;
0,0046310055353482;
0,00412230095514071;
0,0034095991589215;
0,00283250601733977;
0,00265307517248245;
0,00289205639808951;
0,00333761297702991;
0,00371229707228557;
0,0038646456060859;
0,00384211694034561;
0,00380415431205675;
0,00386258096063232;
0,00398729684542684;
0,0040500564147829;
0,00395732625174677;
0,00374773573785056;
0,00356313581915329;
0,0035147699029535;
0,00356109461447754;
0,00351015342343682;
0,00315812399949548;
0,0024600880524213;
0,00159550694665509;
0,000869019294595529;
0,00051541903859572;
0,000553044577455307;
0,000792044983249636;
0,00098398648502065;
0,000993301528565956;
0,000862313226536358;
0,00073326358218419;
0,000705672348952417;
0,000752202396504778;
0,000757940576662681;
0,000639028991494251;
0,000429486384554253;
0,000255245028067965;
0,000214793978102417;
0,000270453439183934;
0,000250709531000115;
-2,63192003698187E-5;
-0,000601011244853812;
-0,0106477092740063;
-0,0245257303620645;
-0,0185111590848793;
-0,0114592526050192;
-0,0138979508233009;
-0,00849291086385134;
-0,00699632973159354;
-0,00595861007117364;
-0,00222497852190106;
-0,0023321664314291;
4,37897257283365E-5;
0,000964576097788974;
0,00179050863240251;
0,00346887472470516;
0,00376617944532682;
0,00481667988379543;
0,00506836510914389;
0,00540864812643345;
0,00609066433046925;
0,0066248315144981;
0,00753613801863349;
0,00802691297871227;
0,00819539174173424;
0,00798739990747876;
0,00744825156790002;
0,00699764609517621;
0,00658328901441751;
0,00628692468867318;
0,00595515402054996;
0,00548103235799555;
0,0049486811616463;
0,00440844357605537;
0,00398016802104307;
0,00362130965069977;
0,00322107388593773;
0,00270930445346826;
0,00210559755633258;
0,00158130563344693;
0,0012968911074088;
0,00129359759973883;
0,00143417419820819;
0,00147047940242259;
0,00121903712419091;
0,000663464758437747;
-3,99651122771689E-5;
-0,000686690087781275;
-0,00116563780495103;
-0,00150808034842761;
-0,00183013073407745;
-0,00221218307918782;
-0,00263106938549117;
-0,00299184057343901;
-0,0032240279090074;
-0,00335544172161242;
-0,00349001940841658;
-0,00370977869471838;
-0,00398383538957658;
-0,00416915556014263;
-0,00411356007496889;
-0,00378265952553956;
-0,00330978193559633;
-0,00292264100743236;
-0,00279760580015055;
-0,00294940185729762;
-0,00323620974821152;
-0,00347155245541091;
-0,00355339242431301;
-0,00351379142863648;
-0,00346069603534994;
-0,00347013523648395;
-0,00352211818514375;
-0,003529922909351;
-0,00343013405256298;
-0,00324909892441762;
-0,00308360639831633;
-0,0030098745640707;
-0,00299996213386865;
-0,00292291070785459;
-0,00263917528559844;
-0,00211770562838407;
-0,0014814087160616;
-0,000939650910950903;
-0,000654405540523127;
-0,000638987698691929;
-0,000763081905200257;
-0,000855462879625229;
-0,000822425207214769;
-0,00069317969263612;
-0,000566330621263801;
-0,000511127124403663;
-0,000508819484258314;
-0,00047960056172554;
-0,000365027268795563;
-0,000188727814362973;
-3,86429368312612E-5;
1,61977247760816E-5;
1,95038739549245E-6;
3,87727678684579E-5;
0,000254540596114348;
0,000678064516885353;
0,00119779384904669;
0,00162351750318932;
0,00180839143654398;
0,0017410725549486;
0,00154094639176663;
0,00136449052647518;
0,00129752161978217;
0,00131402777414932;
0,00132495795987813;
0,00126800047245186;
0,00116078645966232;
0,00107632284584705;
0,0010681397912205;
0,00111526648862115;
0,00113843533411103;
0,00107557518010366;
0,000950871890215825;
0,000873571063582633;
0,000959764832434273;
0,001235776331366;
0,00160094218151589;
0,00188356865071086;
0,00195129755282801;
0,00179427093300519;
0,00152065083470143;
0,00127194616753579;
0,00112575745495881;
0,00105874234264848;
0,000990735930474387;
0,000865723811835626;
0,000699726373413936;
0,000558579361268679;
0,000490501947297233;
0,000476625409470071;
0,00044566104010726;
0,000341831928228686;
0,000186899984565098;
7,8979943637403E-5;
0,000122215538039993;
0,000340071386343953;
0,000642064518670636;
0,000874099885276041;
0,000917479345408999;
0,000763360255738936;
0,00050859028318602;
0,000279765559699672;
0,000146169315213194;
8,67300619148067E-5;
2,95929729532835E-5;
-7,544910730707E-5;
-0,000214214473201052;
-0,000328063167302083;
-0,000374141505719569;
-0,000369491215408728;
-0,000377881541570539;
-0,000449189840390928;
-0,000564157442774513;
-0,000635546566589015;
-0,000570842216536317;
-0,000349415045480125;
-5,20069993945908E-5;
0,000184167915826332;
0,00025349352815368;
0,000148047969670679;
-4,62341483775302E-5;
-0,000217094716668662;
-0,00030322241743409;
-0,000323477589278003;
-0,000341703929936825;
-0,000402496464692162;
-0,000493382945569194;
-0,000562549309990228;
-0,000572196791588792;
-0,000537526416297121;
-0,000515019360458389;
-0,00054881619499115;
-0,000621948739697539;
-0,000657454474244763;
-0,000573791232003415;
-0,000352895925782557;
-6,60806481104269E-5;
0,000165663696910243;
0,000249305966400439;
0,000177917180489723;
2,71646704974394E-5;
-0,000104204069369836;
-0,000162319150158858;
-0,000163797825184281;
-0,000164736365606684;
-0,000204271015154232;
-0,000271426383927879;
-0,000320737808728982;
-0,000319071562666936;
-0,000279757052390504;
-0,000252250429977659;
-0,000275148294389249;
-0,000333544999246298;
-0,000360094085979289;
-0,000283521136642426;
-8,80784626234184E-5;
0,000163935830069645;
0,000366943009361416;
0,00043986732424891;
0,000376780799928164;
0,000243728073835278;
0,0001267830004881;
7,28687515141534E-5;
6,75435639529319E-5;
6,20599315523301E-5;
2,24637305111876E-5;
-4,1639541716293E-5;
-9,07197997122397E-5;
-9,5993244891912E-5;
-6,89996630711894E-5;
-5,25741645189296E-5;
-8,00941011881164E-5;
-0,000138579768381101;
-0,000169694968351392;
-0,000111780225975876;
4,87541824020865E-5;
0,000258060452163365;
0,000424986767305714;
0,000479631214729426;
0,00041697922926583;
0,000294052802411996;
0,000185058443170658;
0,000130410993038871;
0,00011768202768301;
0,000104961405329071;
6,31021054056025E-5;
4,00116699380692E-7;
-4,91790639677932E-5;
-6,09352499117702E-5;
-4,47704854105687E-5;
-3,73867104998764E-5;
-6,73397765255006E-5;
-0,000123480946167616;
-0,000155891225801232;
-0,000111882201364176;
2,01022857448945E-5;
0,000194035665036666;
0,000332128677604011;
0,000374810446658045;
0,000317869787155269;
0,000209918162818513;
0,000114123049220156;
6,48362535499945E-5;
5,14648448284441E-5;
3,83991419178554E-5;
9,08872716421928E-7;
-5,39542030051726E-5;
-9,74008708954509E-5;
-0,000108532274300753;
-9,57609417707235E-5;
-9,01477275161898E-5;
-0,000115822345168209;
-0,000163351786721659;
-0,0001906053732212;
-0,000153185111410409;
-4,14216191189399E-5;
0,000105855021789427;
0,000223150800412595;
0,000260389713245614;
0,000214080289133229;
0,000125078208898422;
4,6385909887723E-5;
6,77380565676074E-6;
-2,6692886103534E-6;
-1,17708020407351E-5;
-4,12119448418213E-5;
-8,50892931077633E-5;
-0,00011936676573933;
-0,000126632463237233;
-0,000113931973344261;
-0,000107155443767215;
-0,000126378278673533;
-0,000163739079340163;
-0,000184234225533736;
-0,000151045135324719;
-5,62183800588652E-5;
6,80057300487553E-5;
0,000167377475101395;
0,000200498650499266;
0,000164536756440919;
9,32706851368647E-5;
3,04339490642993E-5;
-2,84238291367784E-7;
-6,25096302033239E-6;
-1,2014122373406E-5;
-3,45581712531517E-5;
-6,90179421561295E-5;
-9,56753682539881E-5;
-0,000100280817448774;
-8,86251136994684E-5;
-8,18867643368223E-5;
-9,64479956431206E-5;
-0,000125867767694529;
-0,000141606156176862;
-0,000113713639867133;
-3,5780373294556E-5;
6,59438606432318E-5;
0,000147414864945399;
0,00017510605440584;
0,000146786253195992;
8,98301121128596E-5;
3,95871295182197E-5;
1,51572611757613E-5;
1,05790078236412E-5;
6,08541365954074E-6;
-1,19614015910579E-5;
-3,96296600253089E-5;
-6,10955289009571E-5;
-6,49576211666651E-5;
-5,58679942913584E-5;
-5,07501375628962E-5;
-6,26532119748583E-5;
-8,64141129409385E-5;
-9,93130672417113E-5;
-7,7581400603607E-5;
-1,61923528460225E-5;
6,40004017257723E-5;
0,000128135117214242;
0,0001497624650364;
0,000127190008151805;
8,20379003427778E-5;
4,21274212614524E-5;
2,2440941805227E-5;
1,82797115441335E-5;
1,41648032453701E-5;
-5,42827605179262E-7;
-2,27496170877198E-5;
-4,01210006589571E-5;
-4,38058650788736E-5;
-3,74370441150172E-5;
-3,41324850171892E-5;
-4,39633548350404E-5;
-6,29120267544271E-5;
-7,34612018735736E-5;
-5,73628095263295E-5;
-1,08239573713496E-5;
5,01173817791741E-5;
9,87884424884426E-5;
0,000115046121449859;
9,76731833272368E-5;
6,31591703123364E-5;
3,261913677306E-5;
1,73690284074609E-5;
1,3831995221439E-5;
1,0339810830816E-5;
-1,08453181713419E-6;
-1,80959442987317E-5;
-3,14615795063947E-5;
-3,45960472148653E-5;
-3,02292890882122E-5;
-2,81062297236474E-5;
-3,56612444512215E-5;
-4,98954227041954E-5;
-5,79022734078756E-5;
-4,63223899841461E-5;
-1,24544790418316E-5;
3,19234653090102E-5;
6,73778058695258E-5;
7,93356435101914E-5;
6,69957350464429E-5;
4,23143691381767E-5;
2,04862981049156E-5;
9,59254116541955E-6;
7,04489908706312E-6;
4,53223269937938E-6;
-3,57960246860167E-6;
-1,56066946747372E-5;
-2,50472470949443E-5;
-2,73092346586418E-5;
-2,43287056220434E-5;
-2,28868308579778E-5;
-2,81032634003934E-5;
-3,78752420682616E-5;
-4,33434564275137E-5;
-3,54359306104996E-5;
-1,24065951492369E-5;
1,77013102555878E-5;
4,17952101104819E-5;
5,01776512806497E-5;
4,24097814495123E-5;
2,64821303217215E-5;
1,24143809965041E-5;
5,46217614573745E-6;
3,90162193938923E-6;
2,3519098120163E-6;
-2,77778075776315E-6;
-1,03805792092795E-5;
-1,63345531408244E-5;
-1,77829222043895E-5;
-1,59693215653997E-5;
-1,50954043479799E-5;
-1,82679578465586E-5;
-2,41636524180133E-5;
-2,74389918796036E-5;
-2,27432592765655E-5;
-9,15688188254811E-6;
8,51871645288468E-6;
2,2689348913714E-5;
2,78817744048229E-5;
2,39702660499363E-5;
1,55127296231785E-5;
8,05301221056776E-6;
4,4054884242675E-6;
3,59431315682138E-6;
2,76968660366994E-6;
1,04108132678685E-7;
-3,7935723580415E-6;
-6,85273762709242E-6;
-7,71061010173481E-6;
-7,01336217731968E-6;
-6,74208025303659E-6;
-8,27249229872249E-6;
-1,09517836966081E-5;
-1,24567590474564E-5;
-1,06304491234462E-5;
-5,26037934485148E-6;
1,63401358746254E-6;
7,17174353516081E-6;
9,49732467592869E-6;
8,75217633817879E-6;
6,55724283554765E-6;
4,63024269223374E-6;
3,70070257152749E-6;
3,43223176207271E-6;
3,13471626612297E-6;
2,48364692878188E-6;
1,66276257684635E-6;
9,95602903608805E-7;
5,74003341055146E-7;
2,60640904007248E-7;
-3,80708496598812E-8;
-2,28197563557407E-7;
-2,27016764507205E-7;
-2,7363551699839E-7;
-9,17561577101883E-7;
-2,54374287224127E-6;
-4,81527827078565E-6;
-6,62582747965287E-6;
-6,77348195380049E-6;
-4,89239343396127E-6;
-1,84153699993674E-6;
8,69517698545248E-7;
2,21357082866544E-6;
2,39315982349079E-6;
2,53544310235453E-6;
3,57891941063889E-6;
5,34909827795764E-6;
6,70210045463054E-6;
6,66364456365343E-6;
5,52345849331358E-6;
4,76911046560759E-6;
5,72391308448462E-6;
7,9926093021642E-6;
9,19406322819592E-6;
6,51915734919336E-6;
-9,14192002342694E-7;
-1,08032586319477E-5;
-1,87197865620052E-5;
-2,09178681812782E-5;
-1,68462868127929E-5;
-9,4255414498743E-6;
-2,8445769592502E-6;
4,1274059756828E-7;
9,95915032435727E-7;
1,53645131706806E-6;
4,01670967224177E-6;
7,96515680625022E-6;
1,10258514824841E-5;
1,13453277596334E-5;
9,56577752283361E-6;
8,47666816274691E-6;
1,04118387736232E-5;
1,4582155636276E-5;
1,6847326408867E-5;
1,25454977936517E-5;
3,88726687539025E-7;
-1,57096540798875E-5;
-2,86044204482012E-5;
-3,2472125860439E-5;
-2,66114926695923E-5;
-1,5624391299987E-5;
-5,88160782549892E-6;
-1,05129014264014E-6;
-1,20266765478758E-7;
7,63737181843475E-7;
4,4285202996671E-6;
1,01611448397825E-5;
1,46250289636404E-5;
1,5256855541189E-5;
1,29838738473901E-5;
1,16449894652952E-5;
1,43868532194051E-5;
2,01026457277489E-5;
2,3239003318297E-5;
1,76488683938288E-5;
1,72087060002797E-6;
-1,93415433969627E-5;
-3,62217996116267E-5;
-4,14394002325514E-5;
-3,41747129312153E-5;
-2,03684073766231E-5;
-8,12499675243866E-6;
-2,05167757218697E-6;
-8,46504765115676E-7;
3,08613230300731E-7;
4,90863479503896E-6;
1,2049321301068E-5;
1,76214061096295E-5;
1,85038054947707E-5;
1,58483455718052E-5;
1,43168835328098E-5;
1,76916310901183E-5;
2,46164689624329E-5;
2,84351290727216E-5;
2,18445765200327E-5;
2,98379208698806E-6;
-2,19405563256271E-5;
-4,19286832462046E-5;
-4,82190737918583E-5;
-3,99021022443928E-5;
-2,39511837092643E-5;
-9,80440184884758E-6;
-2,78910851133421E-6;
-1,38142483490369E-6;
-2,48477893265056E-8;
5,28382665173439E-6;
1,34937337074754E-5;
1,99081560043123E-5;
2,09836220738675E-5;
1,80426574371184E-5;
1,63685499681078E-5;
2,02214410513331E-5;
2,8056710289193E-5;
3,239076667784E-5;
2,50569459834533E-5;
4,01001795131513E-6;
-2,37947606000102E-5;
-4,61074112072674E-5;
-5,32188367679128E-5;
-4,41546190681778E-5;
-2,66499136084177E-5;
-1,11221671774369E-5;
-3,42523681832019E-6;
-1,87246098542779E-6;
-3,69966872170126E-7;
5,45326305209563E-6;
1,4439200468672E-5;
2,14672152619332E-5;
2,26908801640454E-5;
1,95558538119246E-5;
1,77891511243246E-5;
2,19899234162164E-5;
3,04786085623747E-5;
3,51869424021148E-5;
2,73419159903974E-5;
4,77161844550938E-6;
-2,50440284779988E-5;
-4,89854489736381E-5;
-5,66889118591098E-5;
-4,71374001549102E-5;
-2,85900535185402E-5;
-1,21330458744205E-5;
-3,97699272415484E-6;
-2,32427475629421E-6;
-7,19704451361317E-7;
5,45265449341042E-6;
1,49621636693344E-5;
2,24073021591309E-5;
2,37430846961164E-5;
2,04967350648758E-5;
1,86838195272907E-5;
2,3121271932084E-5;
3,20413451789315E-5;
3,70027031975693E-5;
2,88502220359242E-5;
5,33543134745211E-6;
-2,57320285945547E-5;
-5,06941718454176E-5;
-5,87874405801545E-5;
-4,89715643403156E-5;
-2,98231714033826E-5;
-1,28274775384515E-5;
-4,40454676424217E-6;
-2,69072661313392E-6;
-1,02208513275882E-6;
5,35580716211115E-6;
1,51696624236376E-5;
2,28608742038203E-5;
2,42762045736036E-5;
2,09885155328805E-5;
1,91678709128699E-5;
2,37443250350978E-5;
3,29023353826647E-5;
3,80100571716492E-5;
2,97235894186947E-5;
5,76110916490462E-6;
-2,59058883518925E-5;
-5,13660431924398E-5;
-5,9675163318042E-5;
-4,97864094528144E-5;
-3,04165603069012E-5;
-1,321836965968E-5;
-4,69495440423977E-6;
-2,95511309107341E-6;
-1,25687841527647E-6;
5,2015661231127E-6;
1,51299719385136E-5;
2,29185615440442E-5;
2,43830532211283E-5;
2,11112652639127E-5;
1,93133033683995E-5;
2,39430704230957E-5;
3,31717070433262E-5;
3,83324551771316E-5;
3,00573191729642E-5;
6,06791303256097E-6;
-2,56451775375004E-5;
-5,1159495800178E-5;
-5,95364477506842E-5;
-4,97368516105716E-5;
-3,04672744340595E-5;
-1,33518216660764E-5;
-4,86960706099548E-6;
-3,13443854975687E-6;
-1,43682624686211E-6;
4,99547385158045E-6;
1,48769647231104E-5;
2,26361101193354E-5;
2,41227064936165E-5;
2,09136625823762E-5;
1,9162751292249E-5;
2,37726036474959E-5;
3,29300526166578E-5;
3,80642145225847E-5;
2,99213013963291E-5;
6,25724625535775E-6;
-2,50379673469478E-5;
-5,02337832655456E-5;
-5,85531423122093E-5;
-4,89764878835543E-5;
-3,0074589240297E-5;
-1,32791199345737E-5;
-4,95587528041551E-6;
-3,25079019156524E-6;
-1,57886835902483E-6;
4,73853869864644E-6;
1,4438767233982E-5;
2,20628212493487E-5;
2,35486342670795E-5;
2,04407511483651E-5;
1,87567471588191E-5;
2,32858015815319E-5;
3,22544630319283E-5;
3,72958354470934E-5;
2,93845583156169E-5;
6,33637606808805E-6;
-2,41579838867164E-5;
-4,87270352204699E-5;
-5,68835799900255E-5;
-4,76376010627172E-5;
-2,93210214012993E-5;
-1,30387913808095E-5;
-4,97022058720269E-6;
-3,31554412299787E-6;
-1,68946662684325E-6;
4,440810364757E-6;
1,38502381654092E-5;
2,12529315937431E-5;
2,27189789366529E-5;
1,97431072704912E-5;
1,81418140238641E-5;
2,25403794900241E-5;
3,12245675358475E-5;
3,61190432515045E-5;
2,85192818700684E-5;
6,32144818864854E-6;
-2,30625972148577E-5;
-4,67552027341137E-5;
-5,46623859376785E-5;
-4,58316972349892E-5;
-2,82735325789501E-5;
-1,2658459797844E-5;
-4,92070358080645E-6;
-3,33251494741159E-6;
-1,76833735805834E-6;
4,1171214765949E-6;
1,31482388814531E-5;
2,02604454635126E-5;
2,16909547872597E-5;
1,88708342269303E-5;
1,73640978092345E-5;
2,1592234917256E-5;
2,99156592923852E-5;
3,46197082539076E-5;
2,7393508396703E-5;
6,22985927947406E-6;
-2,18007601010515E-5;
-4,44202155854394E-5;
-5,20086990909051E-5;
-4,36576600376155E-5;
-2,69915206202358E-5;
-1,21626563794798E-5;
-4,81464695276431E-6;
-3,30549638137669E-6;
-1,81586216866178E-6;
3,77987701728283E-6;
1,23646602431605E-5;
1,91323981679662E-5;
2,05143279743335E-5;
1,78672212836823E-5;
1,64632425504227E-5;
2,04896044963252E-5;
2,83931803764902E-5;
3,28726403105338E-5;
2,60661113143013E-5;
6,07533932007759E-6;
-2,04179000005366E-5;
-4,18148027959933E-5;
-4,90307471854638E-5;
-4,12059118771922E-5;
-2,55304844909573E-5;
-1,15760094328674E-5;
-4,66145554643831E-6;
-3,2407671224564E-6;
-1,83527723685093E-6;
3,43719419799697E-6;
1,15249416155073E-5;
1,79077235323129E-5;
1,92305499153208E-5;
1,67681062565188E-5;
1,54719709160576E-5;
1,92729219066095E-5;
2,67128937444591E-5;
3,09420179560512E-5;
2,45873481823831E-5;
5,86841827280421E-6;
-1,89555983302609E-5;
-3,90222332196204E-5;
-4,58255009665159E-5;
-3,855778112535E-5;
-2,39410194810286E-5;
-1,09219196687284E-5;
-4,47105731974216E-6;
-3,14541909154445E-6;
-1,83090001129942E-6;
3,09485114066439E-6;
1,06501933470852E-5;
1,66195181690398E-5;
1,78750774210272E-5;
1,560417644209E-5;
1,44183928897748E-5;
1,79771940566653E-5;
2,49233768310712E-5;
2,88839353064254E-5;
2,30012875884926E-5;
5,61856451700581E-6;
-1,74498576249931E-5;
-3,61149205690657E-5;
-4,24773821269341E-5;
-3,5784114075621E-5;
-2,22672225814289E-5;
-1,02207938499775E-5;
-4,25210072942508E-6;
-3,02557161696707E-6;
-1,80637642072261E-6;
2,75803401593189E-6;
9,75899591904954E-6;
1,52968542494873E-5;
1,64791302935258E-5;
1,44026035389183E-5;
1,33275181004441E-5;
1,66334831381964E-5;
2,30675229871905E-5;
2,67478777554312E-5;
2,13470838904312E-5;
5,33505394161145E-6;
-1,59307102799044E-5;
-3,31544319743505E-5;
-3,9058452635457E-5;
-3,2945389272567E-5;
-2,05466109966243E-5;
-9,48979322013232E-6;
-4,01164829030066E-6;
-2,88613170603815E-6;
-1,7644932816915E-6;
2,43155072844952E-6;
8,86767901571691E-6;
1,39651028621397E-5;
1,50699529189452E-5;
1,31871966722972E-5;
1,22213421800442E-5;
1,52689981810386E-5;
2,11827039452095E-5;
2,45769005397692E-5;
1,96589982662682E-5;
5,02661621769505E-6;
-1,44230559664588E-5;
-3,01926857353404E-5;
-3,56297246174001E-5;
-3,00929012537136E-5;
-1,88110421100954E-5;
-8,74353038976369E-6;
-3,75577251802546E-6;
-2,73136182024806E-6;
-1,70773009904697E-6;
2,11936130047941E-6;
7,98998607230501E-6;
1,26456949314213E-5;
1,36706006432464E-5;
1,19781349491859E-5;
1,11185350050303E-5;
1,39068495665065E-5;
1,93006591724677E-5;
2,2407590308341E-5;
1,7966238022757E-5;
4,70094793895777E-6;
-1,29475613165302E-5;
-2,72731930011419E-5;
-3,22424970643227E-5;
-2,72699099361988E-5;
-1,70875602475855E-5;
-7,99464186700596E-6;
-3,48997141598637E-6;
-2,56525879894526E-6;
-1,63859201989755E-6;
1,82435819978726E-6;
7,13700830117117E-6;
1,13561831473917E-5;
1,23000347127032E-5;
1,07920375115948E-5;
1,00345089038366E-5;
1,25661940801619E-5;
1,7447780296951E-5;
2,02704363954545E-5;
1,62932290103772E-5;
4,36465703897019E-6;
-1,15211582780798E-5;
-2,44318845586669E-5;
-2,89392597708925E-5;
-2,45123836862854E-5;
-1,53988277641098E-5;
-7,25395078991364E-6;
-3,21920431491081E-6;
-2,39153677112912E-6;
-1,55955372758731E-6;
1,54852334765103E-6;
6,31750156272303E-6;
1,01106762301391E-5;
1,09735751774619E-5;
9,64236724425048E-6;
8,98179966175085E-6;
1,12626853878089E-5;
1,56456902767317E-5;
1,81904745249707E-5;
1,46601341528572E-5;
4,02344567873258E-6;
-1,01572934199418E-5;
-2,16977113953696E-5;
-2,57543958172893E-5;
-2,18495309217295E-5;
-1,37633777272596E-5;
-6,53047384087288E-6;
-2,94776900466268E-6;
-2,21348882487772E-6;
-1,47289632278907E-6;
1,29318018365377E-6;
5,53825859561082E-6;
8,92031204943685E-6;
9,7033986440452E-6;
8,53987672473821E-6;
7,97047062439946E-6;
1,00089330241106E-5;
1,39118254433E-5;
1,61879293270713E-5;
1,3083368964144E-5;
3,68228059713544E-6;
-8,86620719120387E-6;
-1,90932639273814E-5;
-2,27149108635301E-5;
-1,9304408913446E-5;
-1,21959488779864E-5;
-5,8315125607822E-6;
-2,67927923359718E-6;
-2,03394350776383E-6;
-1,38065393903773E-6;
1,05913343988605E-6;
4,80439125517863E-6;
7,79363681451968E-6;
8,49891244212852E-6;
7,492921095234E-6;
7,00840117634042E-6;
8,81484018522674E-6;
1,22598722126903E-5;
1,42787098008045E-5;
1,1575977090007E-5;
3,34544231540627E-6;
-7,65530141302061E-6;
-1,66354895883198E-5;
-1,98412538048979E-5;
-1,68945830474198E-5;
-1,07078900630113E-5;
-5,16283655872418E-6;
-2,4167387799445E-6;
-1,8553139945931E-6;
-1,2846300894448E-6;
8,46722878808486E-7;
4,11949963096474E-6;
6,73686902708883E-6;
7,36703787409877E-6;
6,50770655530329E-6;
6,10149547019218E-6;
7,68786655256319E-6;
1,07001575680291E-5;
1,24748505255584E-5;
1,0147952965715E-5;
3,01653308768203E-6;
-6,52954129522857E-6;
-1,4336400221695E-5;
-1,71481256905255E-5;
-1,46328161524106E-5;
-9,30758580007554E-6;
-4,52888184983166E-6;
-2,16262756892639E-6;
-1,67966470199898E-6;
-1,18644946634223E-6;
6,55865759103034E-7;
3,48583837369419E-6;
5,75416315853376E-6;
6,3124907971554E-6;
5,5885143585431E-6;
5,25389270406089E-6;
6,63329011542255E-6;
9,24000983860481E-6;
1,07849445604123E-5;
8,80657239016671E-6;
2,69851989833437E-6;
-5,49179547900972E-6;
-1,2203726371052E-5;
-1,46452131602105E-5;
-1,25276681368008E-5;
-8,00082832287873E-6;
-3,93291525306656E-6;
-1,91895837783357E-6;
-1,50873777936826E-6;
-1,08756371362985E-6;
4,86121247546241E-7;
2,90450012313085E-6;
4,84788230555723E-6;
5,33807337583937E-6;
4,73795571724948E-6;
4,46819188278122E-6;
5,6544914288677E-6;
7,88414634652736E-6;
9,21457368673269E-6;
7,55672570411834E-6;
2,3937831714107E-6;
-4,5431441783291E-6;
-1,02414968335926E-5;
-1,23378676403231E-5;
-1,05840570680837E-5;
-6,7911446506509E-6;
-3,37716489899144E-6;
-1,68731463517639E-6;
-1,34397636319438E-6;
-9,8924857502247E-7;
3,36767731706016E-7;
2,37560420673061E-6;
4,01886883209865E-6;
4,4449441853364E-6;
3,95721201058361E-6;
3,74567360082304E-6;
4,7532127373829E-6;
6,6350355242989E-6;
7,76672346375128E-6;
6,40123860997128E-6;
2,10419343384995E-6;
-3,68313952087711E-6;
-8,45057809499075E-6;
-1,02277206354457E-5;
-8,80376700710434E-6;
-5,68010584106261E-6;
-2,86294258203128E-6;
-1,46888137207853E-6;
-1,18653549941573E-6;
-8,92601614091884E-7;
2,0686901869143E-7;
1,89845935761168E-6;
3,26668585137399E-6;
3,63289154617448E-6;
3,24626283268554E-6;
3,08650142549548E-6;
3,92981015545688E-6;
5,49322540791669E-6;
6,44216680588413E-6;
5,34117316079799E-6;
1,83115458823034E-6;
-2,91007108117521E-6;
-6,82917713591155E-6;
-8,313269564143E-6;
-7,18593267368497E-6;
-4,66762022679471E-6;
-2,39077741347661E-6;
-1,26449340828202E-6;
-1,03731532940757E-6;
-7,9855646945529E-7;
9,53278980777703E-8;
1,47171043917905E-6;
2,58983671927571E-6;
2,90054846586397E-6;
2,60407241293336E-6;
2,48990223091795E-6;
3,18346996919374E-6;
4,45765399590719E-6;
5,23981088027204E-6;
4,37608637607566E-6;
1,57565814998318E-6;
-2,22120031351308E-6;
-5,37330579635492E-6;
-6,59040985468653E-6;
-5,72748613704111E-6;
-3,75220255012462E-6;
-1,96053265106191E-6;
-1,07468230818171E-6;
-8,96979618315181E-7;
-7,07887645996356E-7;
9,23751959444952E-10;
1,0934603892228E-6;
1,98595277731908E-6;
2,24560547902354E-6;
2,02877716151754E-6;
1,95432233203904E-6;
2,51240432180317E-6;
3,52591552613712E-6;
4,15700099088465E-6;
3,50427649231431E-6;
1,3383334936879E-6;
-1,61296860144571E-6;
-4,07720253065581E-6;
-5,05292307934086E-6;
-4,42355479426464E-6;
-2,93122506878016E-6;
-1,57150911683094E-6;
-8,99704039068424E-7;
-7,65988954979495E-7;
-6,21228307991997E-7;
-7,76410458226143E-8;
7,61398649331895E-7;
1,45197662086288E-6;
1,66499008576329E-6;
1,51783824083706E-6;
1,47757936362897E-6;
1,91403663926756E-6;
2,6945101427575E-6;
3,18981707456582E-6;
2,72301257150429E-6;
1,11948505318578E-6;
-1,0811984480109E-6;
-2,93370549614535E-6;
-3,69290841613332E-6;
-3,26783364966E-6;
-2,20113862741442E-6;
-1,22255148190742E-6;
-7,39592082237401E-7;
-6,44623285333669E-7;
-5,39079722328905E-7;
-1,41714014465829E-7;
4,72889993072546E-7;
9,84318749922279E-7;
1,15504952467258E-6;
1,06819705451472E-6;
1,05699866166543E-6;
1,38516567177219E-6;
1,95907416033526E-6;
2,33333509914044E-6;
2,02873066818368E-6;
9,19135948105061E-7;
-6,21246052954432E-7;
-1,93458720111062E-6;
-2,50118039295546E-6;
-2,25290280720448E-6;
-1,55767057592989E-6;
-9,12133700695302E-7;
-5,94180260404289E-7;
-5,33002484859212E-7;
-4,61822419707265E-7;
-1,92651986241052E-7;
2,25085608724716E-7;
5,7899925659137E-7;
7,11690155278786E-7;
6,76399008232515E-7;
6,89525461542621E-7;
9,22113836813159E-7;
1,3145808440085E-6;
1,58185044673412E-6;
1,41722405855273E-6;
7,37080213427643E-7;
-2,2815712614051E-7;
-1,07084958744963E-6;
-1,46759797564267E-6;
-1,37051687117916E-6;
-9,96002404673256E-7;
-6,38435329398975E-7;
-4,63135944833422E-7;
-4,31102388289185E-7;
-3,89723542332725E-7;
-2,3180515600241E-7;
1,49887576662783E-8;
2,31765572630961E-7;
3,30509412164912E-7;
3,3871166408177E-7;
3,71836936362072E-7;
5,20858087974142E-7;
7,55522984666428E-7;
9,29094111513734E-7;
8,8379858546086E-7;
5,72903799471294E-7;
1,03213268559699E-7;
-3,32981980840702E-7;
-5,81383305906785E-7;
-6,11857490867222E-7;
-5,10928024167329E-7;
-3,99417405008703E-7;
-3,45989334977259E-7;
-3,38787152550087E-7;
-3,22953818459642E-7;
-2,60492678411178E-7;
-1,60470766243096E-7;
-6,17889794972506E-8;
6,91943068974746E-9;
5,12243473427755E-8;
1,00429569639389E-7;
1,77138347494172E-7;
2,76062355714176E-7;
3,68405918693109E-7;
4,234200801039E-7;
4,26032282972182E-7;
3,78087520524143E-7;
2,8881315966529E-7;
1,68628320552958E-7;
3,22439070034716E-8;
-9,69896649658105E-8;
-1,9288423623417E-7;
-2,42164138569824E-7;
-2,55818791368182E-7;
-2,61594359094604E-7;
-2,79984677368953E-7;
-3,04377303197879E-7;
-3,06143917129391E-7;
-2,63764327333421E-7;
-1,90068148246142E-7;
-1,28296360621237E-7;
-1,13434983583533E-7;
-1,298288202446E-7;
-1,07106308787761E-7;
3,08392066827216E-8;
2,95757001463202E-7;
6,01675166288956E-7;
8,04433533445593E-7;
7,93762479248641E-7;
5,7112010017429E-7;
2,51402339063876E-7;
-1,65388373697075E-8;
-1,50994082955073E-7;
-1,81873750106013E-7;
-2,05649788565104E-7;
-2,91493215023161E-7;
-4,19782776793119E-7;
-5,0577056212491E-7;
-4,86233958754071E-7;
-3,89188530368325E-7;
-3,17974298092404E-7;
-3,5530897012531E-7;
-4,68253930446242E-7;
-5,04427545690197E-7;
-2,99301016165463E-7;
1,81265275312341E-7;
7,79098361558638E-7;
1,22371114822135E-6;
1,3053072650684E-6;
1,01410351033942E-6;
5,39872920632358E-7;
1,31969791479224E-7;
-7,17540976922264E-8;
-1,16565270090693E-7;
-1,55055580724513E-7;
-2,96158858716222E-7;
-5,09664111409598E-7;
-6,65068067612527E-7;
-6,65123237741431E-7;
-5,50119051256636E-7;
-4,72211035451592E-7;
-5,52903543726054E-7;
-7,45290947996306E-7;
-8,30530181832374E-7;
-5,72377946668923E-7;
8,16587036698E-8;
9,15324300916507E-7;
1,55628147520435E-6;
1,71436283953983E-6;
1,37039202222977E-6;
7,73986582683538E-7;
2,55005939035363E-7;
-3,66603531720981E-9;
-5,94530591147858E-8;
-1,09694018600333E-7;
-2,95045461685761E-7;
-5,76892009022598E-7;
-7,8830741487321E-7;
-8,04940203835351E-7;
-6,76748269591371E-7;
-5,94539893390353E-7;
-7,10556429079089E-7;
-9,66911269542949E-7;
-1,09227089467243E-6;
-7,93701993340511E-7;
-4,01192855057475E-9;
1,01512074051815E-6;
1,81147549477659E-6;
2,03171036785229E-6;
1,64894338580923E-6;
9,59191014630688E-7;
3,54909695243719E-7;
5,40687347023639E-8;
-1,00556796145884E-8;
-6,93939542356789E-8;
-2,89135401204039E-7;
-6,24201100275885E-7;
-8,79592154578232E-7;
-9,10037018410683E-7;
-7,72828616033102E-7;
-6,8837576730356E-7;
-8,32477701878856E-7;
-1,13891002264279E-6;
-1,29631003052342E-6;
-9,68459872621796E-7;
-7,67320564144925E-8;
1,08301803134338E-6;
1,99822604388077E-6;
2,26769727758255E-6;
1,85837457097939E-6;
1,10074534161526E-6;
4,33971904440264E-7;
1,02270161107132E-7;
3,21332859082756E-8;
-3,3948707400968E-8;
-2,79325538458773E-7;
-6,54178718613665E-7;
-9,42823880432896E-7;
-9,84553139782734E-7;
-8,41946009953956E-7;
-7,56998284666264E-7;
-9,22707201820363E-7;
-1,26685631880295E-6;
-1,44906125374573E-6;
-1,10165965628041E-6;
-1,37507993277493E-7;
1,12327154024005E-6;
2,12501190538249E-6;
2,43217540560246E-6;
2,00690560727288E-6;
1,20368925064575E-6;
4,94408893930919E-7;
1,41751848642937E-7;
6,76390144281534E-8;
-3,11813964280448E-9;
-2,66429159897526E-7;
-6,69244162237814E-7;
-9,81680490908176E-7;
-1,03240550437967E-6;
-8,87494400413928E-7;
-8,0351210859077E-7;
-9,85084775574812E-7;
-1,35604325134113E-6;
-1,55662058397722E-6;
-1,19809153051788E-6;
-1,87349537670332E-7;
1,13985558484182E-6;
2,19979810420396E-6;
2,53442121293662E-6;
2,10229366952587E-6;
1,27279030437663E-6;
5,38343222979876E-7;
1,73324427232599E-7;
9,69925391309282E-8;
2,33595100748884E-8;
-2,51175090507465E-7;
-6,71641072606409E-7;
-9,995922916388E-7;
-1,05725777396898E-6;
-9,12658397841146E-7;
-8,30839043428289E-7;
-1,0232261253462E-6;
-1,41146560431334E-6;
-1,62475067829979E-6;
-1,26228923183244E-6;
-2,27253036241517E-7;
1,1364403365061E-6;
2,23001071077154E-6;
2,58310428236833E-6;
2,15180563751276E-6;
1,31253533455574E-6;
5,67786560157699E-7;
1,97773694272093E-7;
1,20727440169466E-7;
4,57687668369592E-8;
-2,3420729269739E-7;
-6,63432804791949E-7;
-9,99738385913108E-7;
-1,06251161370051E-6;
-9,20395438784855E-7;
-8,41702468342052E-7;
-1,0405115742327E-6;
-1,43778793351337E-6;
-1,65883949560791E-6;
-1,29851447462356E-6;
-2,58194112094699E-7;
1,11638934682683E-6;
2,22251161488918E-6;
2,58626032460189E-6;
2,16218512282564E-6;
1,32710102780433E-6;
5,84636958378381E-7;
2,15864831379486E-7;
1,39371528988598E-7;
6,44025488864109E-8;
-2,16095614162606E-7;
-6,46504163473108E-7;
-9,85038043880119E-7;
-1,05129989895917E-6;
-9,13439832225203E-7;
-8,38622712183126E-7;
-1,0400690418042E-6;
-1,43933889663307E-6;
-1,66389468051829E-6;
-1,310740220763E-6;
-2,81119283501969E-7;
1,08276336434178E-6;
2,18359259149341E-6;
2,55127317715211E-6;
2,13964917727624E-6;
1,32035065802747E-6;
5,90659784138137E-7;
2,28326426024292E-7;
1,5343738363409E-7;
7,95596683927976E-8;
-1,97329365439485E-7;
-6,22554763447612E-7;
-9,58147851682673E-7;
-1,02648250007644E-6;
-8,94291966714649E-7;
-8,23911693717777E-7;
-1,02477841956555E-6;
-1,42010138338236E-6;
-1,64452238479962E-6;
-1,3026366229378E-6;
-2,96936795931923E-7;
1,0383191100287E-6;
2,11897461799216E-6;
2,48487656152128E-6;
2,08987284656385E-6;
1,29582587840146E-6;
5,87497037656184E-7;
2,35853785757701E-7;
1,63422417922626E-7;
9,15414821716345E-8;
-1,78331653156616E-7;
-5,93115283104392E-7;
-9,21474148635352E-7;
-9,90653253169961E-7;
-8,65219829963186E-7;
-7,996709620268E-7;
-9,97261964443476E-7;
-1,38370831980331E-6;
-1,60493581160642E-6;
-1,27757147601799E-6;
-3,06508752830106E-7;
9,85520287048287E-7;
2,03381871935169E-6;
2,39316350447403E-6;
2,01800705258144E-6;
1,25674998390281E-6;
5,76651154428469E-7;
2,39098522535176E-7;
1,69803443606529E-7;
1,00649155469496E-7;
-1,59456521528523E-7;
-5,59540198837751E-7;
-8,77165905788643E-7;
-9,46140621859549E-7;
-8,28267138786238E-7;
-7,67801389620668E-7;
-9,59896608520143E-7;
-1,33345149700813E-6;
-1,54895425969834E-6;
-1,2386127936625E-6;
-3,10651695471805E-7;
9,26548174746898E-7;
1,93274284228593E-6;
2,28160066358089E-6;
1,92868027050585E-6;
1,20603447026793E-6;
5,59497316225852E-7;
2,38671402380693E-7;
1,73031244032324E-7;
1,0717428373695E-7;
-1,40999004853688E-7;
-5,23027042688538E-7;
-8,27136343616609E-7;
-8,95021952902219E-7;
-7,85262298762666E-7;
-7,30003072927929E-7;
-9,14811128727636E-7;
-1,27228934359928E-6;
-1,48001744804496E-6;
-1,18853069760216E-6;
-3,10126073022427E-7;
8,63317479129598E-7;
1,8198399380198E-6;
2,15505086016924E-6;
1,82602408503439E-6;
1,14628582527062E-6;
5,37275421932515E-7;
2,35138448221279E-7;
1,73535215164719E-7;
1,11402446563564E-7;
-1,23196307027982E-7;
-4,8461424258946E-7;
-7,7306833414659E-7;
-8,39126940568782E-7;
-7,37815658352804E-7;
-6,87787270175906E-7;
-8,63904290260709E-7;
-1,20285682137272E-6;
-1,40118979528845E-6;
-1,12980677260778E-6;
-3,05641190870585E-7;
7,9749118774205E-7;
1,69870543072265E-6;
2,01779960039058E-6;
1,7136872969646E-6;
1,07981544423376E-6;
5,11104399193796E-7;
2,2902173191861E-7;
1,71709986931232E-7;
1,13608676911906E-7;
-1,06237101684383E-7;
-4,45201223407315E-7;
-7,16425089687427E-7;
-7,8006014228938E-7;
-6,87347985358529E-7;
-6,42482312071177E-7;
-8,08848177486816E-7;
-1,12748184973934E-6;
-1,31518560717093E-6;
-1,06464824585566E-6;
-2,9785342811198E-7;
7,30492873105652E-7;
1,57247158027012E-6;
1,87359090897037E-6;
1,5948654953238E-6;
1,00866168695542E-6;
4,81973830653065E-7;
2,20794778897239E-7;
1,67927244993223E-7;
1,14052525054972E-7;
-9,0265526609607E-8;
-4,05552637074446E-7;
-6,58471502885747E-7;
-7,19208164945091E-7;
-6,3508684456119E-7;
-5,95245360525888E-7;
-7,51104827770737E-7;
-1,04819869514016E-6;
-1,22437993066097E-6;
-9,94997517496653E-7;
-2,87358529942245E-7;
6,6353084216465E-7;
1,44382366209067E-6;
1,72565796348759E-6;
1,47233191442745E-6;
9,34597035367524E-7;
4,50761391239937E-7;
2,10891579179826E-7;
1,62527870578411E-7;
1,12980843774751E-7;
-7,53843102152791E-8;
-3,66309213835568E-7;
-6,00280959275464E-7;
-6,57755460637146E-7;
-5,82088941249654E-7;
-5,47075864175521E-7;
-6,91937134075015E-7;
-9,66770746034287E-7;
-1,13083827740282E-6;
-9,22551370925541E-7;
-2,74701900578277E-7;
5,97611667297757E-7;
1,31505043251535E-6;
1,57676100262766E-6;
1,3484579042814E-6;
8,59151742951542E-7;
4,18233617476384E-7;
1,99697429630125E-7;
1,55820834824014E-7;
1,1062448081238E-7;
-6,16625370710263E-8;
-3,27999492099901E-7;
-5,42754118984846E-7;
-5,96704764145644E-7;
-5,29245982444623E-7;
-4,9881770181621E-7;
-6,32425674899158E-7;
-8,84708979387792E-7;
-1,03632856392192E-6;
-8,48773334731321E-7;
-2,60373395642971E-7;
5,33561173937331E-7;
1,1880629461159E-6;
1,4292241289812E-6;
1,22524992836864E-6;
7,83623446577696E-7;
3,85052373395661E-7;
1,87560675469029E-7;
1,48088118317051E-7;
1,07196869066986E-7;
-4,91362902682137E-8;
-2,91051205195144E-7;
-4,8663695713911E-7;
-5,36885160067272E-7;
-4,77304701958562E-7;
-4,51187841169196E-7;
-5,73479523492544E-7;
-8,03283924076632E-7;
-9,42345344530118E-7;
-7,74908349608103E-7;
-2,44811972218758E-7;
4,72038279881257E-7;
1,06443278681463E-6;
1,28497086668672E-6;
1,10438305507827E-6;
7,09109371966712E-7;
3,51782907492536E-7;
1,74783194972226E-7;
1,39583862847295E-7;
1,02895974907108E-7;
-3,78208553767416E-8;
-2,55799064780815E-7;
-4,32527777248383E-7;
-4,78975760477598E-7;
-4,26876384683626E-7;
-4,04770848131943E-7;
-5,15851275511489E-7;
-7,23554604947429E-7;
-8,50140155345605E-7;
-7,0200757865281E-7;
-2,28406050182958E-7;
4,13554205512931E-7;
9,45427298107181E-7;
1,14556514915259E-6;
9,87217740128684E-7;
6,36506183179641E-7;
3,18904891407623E-7;
1,61637483640881E-7;
1,30534014060414E-7;
9,7902961960348E-8;
-2,77031034315989E-8;
-2,22498425137827E-7;
-3,80899852611006E-7;
-4,2351121456389E-7;
-3,7844886007641E-7;
-3,60043209956092E-7;
-4,60154121100483E-7;
-6,46384773872593E-7;
-7,60733656181493E-7;
-6,30936087877943E-7;
-2,11498535617065E-7;
3,58490172036536E-7;
8,32037394136157E-7;
1,01224209998477E-6;
8,74846075662694E-7;
5,66545805175555E-7;
2,86810773673387E-7;
1,48350342766208E-7;
1,21137635163956E-7;
9,2382283704076E-8;
-1,87553886854247E-8;
-1,91331028120337E-7;
-3,32109452640836E-7;
-3,70909204995712E-7;
-3,32402979198339E-7;
-3,17374361604528E-7;
-4,06877321962361E-7;
-5,72463972415943E-7;
-6,74942323049011E-7;
-5,623992702768E-7;
-1,9438386081945E-7;
3,07116333361166E-7;
7,25006284273857E-7;
8,85950768000909E-7;
7,68112429112894E-7;
4,99798427186583E-7;
2,55829167778831E-7;
1,35124981127926E-7;
1,11568062368707E-7;
8,64789839203558E-8;
-1,09376338793455E-8;
-1,62418769531536E-7;
-2,86415024529989E-7;
-3,21470814726946E-7;
-2,89020375819125E-7;
-2,77048976246363E-7;
-3,56390517479439E-7;
-5,02320083788449E-7;
-5,93403468018209E-7;
-4,96952458872285E-7;
-1,77317901309478E-7;
2,59596515923135E-7;
6,24865276925622E-7;
7,67379923960925E-7;
6,6763981232648E-7;
4,36697939251704E-7;
2,26208154437339E-7;
1,22122795616111E-7;
1,01976390960837E-7;
8,03253072723156E-8;
-4,19327373757771E-9;
-1,35825638115258E-7;
-2,43984399753027E-7;
-2,75405095194447E-7;
-2,48500424701732E-7;
-2,39269253692083E-7;
-3,08967422967338E-7;
-4,36344523256772E-7;
-5,16587151349094E-7;
-4,35016248835842E-7;
-1,60514080244282E-7;
2,16012166216439E-7;
5,31955375545168E-7;
6,56995525991543E-7;
5,73862394927605E-7;
3,77557747301601E-7;
1,98148689517715E-7;
1,09488855794717E-7;
9,249210010399E-8;
7,40349873533435E-8;
1,54090281470566E-9;
-1,11571014387205E-7;
-2,04909795391704E-7;
-2,32837019385796E-7;
-2,10968112783472E-7;
-2,04167741402543E-7;
-2,64791893928202E-7;
-3,74805421163063E-7;
-4,44822120359216E-7;
-3,76899530305044E-7;
-1,44156943563288E-7;
1,76372284299814E-7;
4,46458104873247E-7;
5,55067493706782E-7;
4,87045799598065E-7;
3,22583007768146E-7;
1,71792090012907E-7;
9,73295860134142E-8;
8,32227765984119E-8;
6,77113266327216E-8;
6,33245986344088E-9;
-8,96362138387579E-8;
-1,69219040973739E-7;
-1,93818041968222E-7;
-1,76481146513899E-7;
-1,71817907200601E-7;
-2,239712160194E-7;
-3,17862379740444E-7;
-3,7831359949236E-7;
-3,22802455287394E-7;
-1,28388817838012E-7;
1,4062265171302E-7;
3,68413803023047E-7;
4,61697975501469E-7;
4,07312568808753E-7;
2,71886425077788E-7;
1,472344449315E-7;
8,57387741711711E-8;
7,42566390251596E-8;
6,14384764875402E-8;
1,02567275285533E-8;
-6,9973398269945E-8;
-1,36886042798676E-7;
-1,58341204415498E-7;
-1,45049219134685E-7;
-1,42239785888365E-7;
-1,86549547226085E-7;
-2,65587679362547E-7;
-3,17156682721039E-7;
-2,72843022325123E-7;
-1,13330899637021E-7;
1,08662350742144E-7;
2,97747972506147E-7;
3,76848608442407E-7;
3,3466183709661E-7;
2,25498880286993E-7;
1,24532885645041E-7;
7,47825969051663E-8;
6,5665970219337E-8;
5,52914335376518E-8;
1,33874369848071E-8;
-5,25024567751875E-8;
-1,07837730161177E-7;
-1,2634811414979E-7;
-1,16629989014376E-7;
-1,15411768433766E-7;
-1,52510759491406E-7;
-2,17969742273987E-7;
-2,61358829834963E-7;
-2,27057465518848E-7;
-9,90694592765055E-8;
8,03460546466002E-8;
2,34288412669758E-7;
3,0036433224526E-7;
2,68991364984998E-7;
1,83388416933663E-7;
1,03708532063669E-7;
6,45104861806424E-8;
5,75070827615745E-8;
4,9329287533113E-8;
1,58029801059408E-8;
-3,71261426279383E-8;
-8,19650784135881E-8;
-9,77363081239378E-8;
-9,11469907440359E-8;
-9,12746747404811E-8;
-1,21798424324833E-7;
-1,74938941712311E-7;
-2,10846639985763E-7;
-1,85420770416506E-7;
-8,56736126346749E-8;
5,5500552786519E-8;
1,77787617145412E-7;
2,31992930188881E-7;
2,1011571290113E-7;
1,45465224217151E-7;
8,47529757201202E-8;
5,49540063596028E-8;
4,98219781189444E-8;
4,3604153183121E-8;
1,75777307842854E-8;
-2,37313309518077E-8;
-5,91299366041447E-8;
-7,23750344567228E-8;
-6,8492850201583E-8;
-6,9739151392008E-8;
-9,43109310326711E-8;
-1,36365225307774E-7;
-1,65485403072315E-7;
-1,47851121991747E-7;
-7,31864796316746E-8;
3,39268638451919E-8;
1,27934479192886E-7;
1,71404628133101E-7;
1,57779478093071E-7;
1,11594055661351E-7;
6,7632985953286E-8;
4,61327152587552E-8;
4,26418589534554E-8;
3,81550847129231E-8;
1,87856291154161E-8;
-1,21949043731886E-8;
-3,91708924464069E-8;
-5,01022554857346E-8;
-4,85376297129082E-8;
-5,06955744377441E-8;
-6,99235889175762E-8;
-1,02081266583123E-7;
-1,25087879274854E-7;
-1,14225170843454E-7;
-6,16355255903715E-8;
1,54111066729256E-8;
8,43729022035043E-8;
1,18211475011167E-7;
1,11675330951029E-7;
8,16040880538912E-8;
5,22956186970922E-8;
3,80500750563901E-8;
3,59834666765307E-8;
3,30112238926599E-8;
1,94975620181939E-8;
-2,38215579632694E-9;
-2,19125228418489E-8;
-3,07409566953143E-8;
-3,11298452413684E-8;
-3,40149524756222E-8;
-4,84833681404139E-8;
-7,18818928706541E-8;
-8,94286102697571E-8;
-8,43816266575793E-8;
-5,10306237703577E-8;
-2,74090226010362E-10;
4,671220627365E-8;
7,19805078993802E-8;
7,14557372465781E-8;
5,52962719060928E-8;
3,86705109838201E-8;
3,07017373247774E-8;
2,98567627460061E-8;
2,81964874938004E-8;
1,97818628307512E-8;
5,8396688206058E-9;
-7,16726958219838E-9;
-1,40986755204307E-8;
-1,61102167896413E-8;
-1,95537879391321E-8;
-2,98197469332505E-8;
-4,55375778658482E-8;
-5,82491236224159E-8;
-5,81353877474994E-8;
-4,13677271390009E-8;
-1,33566791221599E-8;
1,45380171405844E-8;
3,22463073814225E-8;
3,6746187005459E-8;
3,24536728684839E-8;
2,66765152820129E-8;
2,40735331971719E-8;
2,42624108977321E-8;
2,37250635659068E-8;
1,97024827656245E-8;
1,26124674773154E-8;
5,26183227412782E-9;
2,41242039681151E-11;
-3,30852946457757E-9;
-7,15996346037034E-9;
-1,3751844960119E-8;
-2,28026980941639E-8;
-3,12699202339115E-8;
-3,5277024581152E-8;
-3,26309946698703E-8;
-2,40732468491717E-8;
-1,25767180576796E-8;
-1,47046753867752E-9;
7,14971291330716E-9;
1,28392586854282E-8;
1,62205502782924E-8;
1,81439555929336E-8;
1,91945128895991E-8;
1,96042779663176E-8;
1,93185406903593E-8;
1,80705939677029E-8;
1,55678401668271E-8;
1,18356163462522E-8;
7,453874697884E-9;
3,32175334045294E-9;
-9,03457074366206E-11;
-3,41700284842954E-9;
-8,19664500918675E-9;
-1,55855569462304E-8;
-2,47939903813452E-8;
-3,26492318267106E-8;
-3,50615163298637E-8;
-2,96617344492587E-8;
-1,77348778453589E-8;
-3,78589037082782E-9;
7,20463644563115E-9;
1,28848968390469E-8;
1,4639509240681E-8;
1,5835782058798E-8;
1,86841001376253E-8;
2,23511222350816E-8;
2,39495853748806E-8;
2,15373316096087E-8;
1,63490348642369E-8;
1,20509328448956E-8;
1,13600723057942E-8;
1,28841583159326E-8;
1,12715263185422E-8;
1,17006348984183E-9;
-1,78239599704183E-8;
-3,93118132578962E-8;
-5,33456864527583E-8;
-5,28206142916902E-8;
-3,83184176235623E-8;
-1,76690044454979E-8;
-4,74719050330991E-10;
8,26384632923927E-9;
1,05800129711366E-8;
1,24174921354481E-8;
1,78496526954034E-8;
2,55807376768843E-8;
3,05970859314258E-8;
2,93330508333938E-8;
2,35526194060001E-8;
1,91868669313655E-8;
2,07924644991728E-8;
2,63649116596334E-8;
2,74402843369884E-8;
1,52255814716584E-8;
-1,16826247306832E-8;
-4,42752888481107E-8;
-6,78480754384148E-8;
-7,1429148129041E-8;
-5,49967056444311E-8;
-2,90541901089168E-8;
-6,92522410490563E-9;
4,24516436559438E-9;
6,99604956201759E-9;
9,34359715244941E-9;
1,68619345892505E-8;
2,7885881477326E-8;
3,56973839434068E-8;
3,54222295223328E-8;
2,92366368625213E-8;
2,48834259215478E-8;
2,83972454975616E-8;
3,7290821825206E-8;
4,06125031886192E-8;
2,68141685904321E-8;
-6,32331054772978E-9;
-4,77446462946806E-8;
-7,89755942387515E-8;
-8,59610181042811E-8;
-6,81701235335037E-8;
-3,81822636473493E-8;
-1,22491056540468E-8;
7,88903109119165E-10;
3,86227971152553E-9;
6,60156373078556E-9;
1,57592276257563E-8;
2,93854149580166E-8;
3,94280450718243E-8;
3,99917693384139E-8;
3,35649457061358E-8;
2,9293707284474E-8;
3,43627993031692E-8;
4,59165708801026E-8;
5,10835750309285E-8;
3,61708605013514E-8;
-1,69884621448784E-9;
-4,99164098693265E-8;
-8,71188700069946E-8;
-9,68698243546107E-8;
-7,82141850851178E-8;
-4,52867702693041E-8;
-1,65532187357709E-8;
-2,14352734910029E-9;
1,15405023419535E-9;
4,17953120334844E-9;
1,45763964652419E-8;
3,01892551808718E-8;
4,19617534805042E-8;
4,32248940753897E-8;
3,66971994622711E-8;
3,2563583938101E-8;
3,88668662033581E-8;
5,24915802415981E-8;
5,91409200440235E-8;
4,35199554911133E-8;
2,24256741465457E-9;
-5,09696132676102E-8;
-9,26463458467644E-8;
-1,04587659106961E-7;
-8,54943568112797E-8;
-5,05967803893805E-8;
-1,99409803581352E-8;
-4,59439823389683E-9;
-1,15963522556127E-9;
2,06244253516732E-9;
1,3347564626097E-8;
3,0399068125146E-8;
4,34555164712827E-8;
4,52936188274175E-8;
3,87809389186556E-8;
3,48276841030905E-8;
4,20824116972582E-8;
5,72543652693051E-8;
6,5058972358462E-8;
4,90812994805095E-8;
5,55094200128799E-9;
-5,10768552326537E-8;
-9,59044049175395E-8;
-1,09522031592976E-7;
-9,03542246212132E-8;
-5,43226062709561E-8;
-2,25083540230321E-8;
-6,60384764681469E-9;
-3,10667289409167E-9;
2,32499310885439E-10;
1,20992950003655E-8;
3,01107331474885E-8;
4,40569732890622E-8;
4,63566786384569E-8;
3,99583124508364E-8;
3,62198646974345E-8;
4,41742760377639E-8;
6,04310432672047E-8;
6,90988230893907E-8;
5,30623441103071E-8;
8,28072361004382E-9;
-5,03905698494195E-8;
-9,72193503689482E-8;
-1,12057975642662E-7;
-9,31178166528711E-8;
-5,66680114746212E-8;
-2,43512321136937E-8;
-8,21326960591931E-9;
-4,71585151436374E-9;
-1,32832172145412E-9;
1,08539504799819E-8;
2,94110589792644E-8;
4,39054944515031E-8;
4,656406012516E-8;
4,03594086758363E-8;
3,68610546838605E-8;
4,52914684771021E-8;
6,22285452170175E-8;
7,15047425490277E-8;
5,56602887037384E-8;
1,04819690150405E-8;
-4,90542078524127E-8;
-9,68881917914191E-8;
-1,12547049790614E-7;
-9,40864279680916E-8;
-5,78240609218867E-8;
-2,55600197610041E-8;
-9,46334622219161E-9;
-6,01766708473051E-9;
-2,63949771571113E-9;
9,63092453330368E-9;
2,83788004108042E-8;
4,31277737831712E-8;
4,60534559189179E-8;
4,01048024500526E-8;
3,68632647026846E-8;
4,55762658501147E-8;
6,28456520074791E-8;
7,2505958570441E-8;
5,70599527071556E-8;
1,22082032079842E-8;
-4,71940936740134E-8;
-9,51876200952421E-8;
-1,11318388410323E-7;
-9,35374180553433E-8;
-5,79647586982277E-8;
-2,62171740205757E-8;
-1,03917478526322E-8;
-7,04092715872983E-9;
-3,72145336976724E-9;
8,44520176634007E-9;
2,70850433866134E-8;
4,18361175619394E-8;
4,4946844024994E-8;
3,93045781367668E-8;
3,63312999360343E-8;
4,5161462097187E-8;
6,24666530955673E-8;
7,23174726300608E-8;
5,74335456579541E-8;
1,35071508781454E-8;
-4,49235001694061E-8;
-9,2365051523858E-8;
-1,08669166460451E-7;
-9,17251291616905E-8;
-5,72544375491577E-8;
-2,640326973976E-8;
-1,10358234101711E-8;
-7,81478739256924E-9;
-4,59202713763379E-9;
7,31175716083336E-9;
2,55922885677246E-8;
4,01357427259545E-8;
4,33609453519973E-8;
3,80613060469517E-8;
3,53589336175234E-8;
4,41652003173237E-8;
6,12565943044968E-8;
7,11302565034067E-8;
5,69414607930966E-8;
1,44281783756552E-8;
-4,23479801682984E-8;
-8,86469660062379E-8;
-1,0487011487699E-7;
-8,88814107101086E-8;
-5,5838604319199E-8;
-2,61890322307768E-8;
-1,1430232379115E-8;
-8,36645300726076E-9;
-5,27331856360948E-9;
6,23806908064346E-9;
2,39558456972074E-8;
3,81187514077235E-8;
4,13979102029058E-8;
3,64656257281588E-8;
3,40313296769634E-8;
4,26931715735589E-8;
5,93657177604135E-8;
6,9124331515959E-8;
5,57277210062349E-8;
1,50158924557948E-8;
-3,95558488783155E-8;
-8,42357800250017E-8;
-1,00163507542961E-7;
-8,52147021985002E-8;
-5,38532453748893E-8;
-2,56428860649155E-8;
-1,16100094924581E-8;
-8,72349077968161E-9;
-5,78242344407166E-9;
5,23571290121166E-9;
2,22265347246096E-8;
3,58678996969149E-8;
3,91469240454305E-8;
3,45956161924642E-8;
3,24270311988877E-8;
4,08487176681932E-8;
5,69335794719868E-8;
6,64606908071836E-8;
5,39259738853754E-8;
1,53123428283495E-8;
-3,66249491865631E-8;
-7,93080583643347E-8;
-9,47676191596672E-8;
-8,09129429465136E-8;
-5,14171311468664E-8;
-2,4823909885852E-8;
-1,16036966515752E-8;
-8,90798046619352E-9;
-6,14059044924902E-9;
4,30338621286648E-9;
2,04423235901947E-8;
3,34511503531291E-8;
3,66874123573124E-8;
3,25265451989393E-8;
3,06131276596122E-8;
3,87156208004253E-8;
5,40801630578155E-8;
6,32800800888873E-8;
5,16554893944603E-8;
1,53602135550774E-8;
-3,36224737438541E-8;
-7,40215239344906E-8;
-8,88733218441572E-8;
-7,61415115011783E-8;
-4,86395297995255E-8;
-2,37883865470691E-8;
-1,14409427786417E-8;
-8,94627667283712E-9;
-6,36334610973181E-9;
3,44997203462824E-9;
1,86419634806831E-8;
3,09375071353394E-8;
3,40921089336602E-8;
3,03181286686569E-8;
2,8650449959156E-8;
3,63709135015408E-8;
5,09153675281836E-8;
5,9714770744078E-8;
4,9021801417963E-8;
1,51947903184775E-8;
-3,06058383466296E-8;
-6,85127905101251E-8;
-8,26452188920537E-8;
-7,1044462877186E-8;
-4,56153769992159E-8;
-2,25839565724517E-8;
-1,11480791977115E-8;
-8,85930371070353E-9;
-6,46823231691833E-9;
2,67543012294595E-9;
1,68553764307751E-8;
2,83760689361382E-8;
3,14198574694172E-8;
2,80285493949565E-8;
2,65918946199773E-8;
3,38834517382318E-8;
4,75350984929966E-8;
5,58749429882683E-8;
4,61214785425919E-8;
1,48536387696798E-8;
-2,76232550687948E-8;
-6,29003435537679E-8;
-7,6231271983301E-8;
-6,57502183601286E-8;
-4,24266151714241E-8;
-2,12547416766609E-8;
-1,07496791415116E-8;
-8,66632616017086E-9;
-6,47310390918276E-9;
1,97716951017908E-9;
1,5107449186809E-8;
2,58136037001278E-8;
2,87221600929061E-8;
2,57022599457594E-8;
2,44822074639565E-8;
3,13127261302541E-8;
4,40221559708461E-8;
5,18609507501481E-8;
4,30381991945325E-8;
1,43645509054435E-8;
-2,47145865778582E-8;
-5,72807051225063E-8;
-6,97524663841596E-8;
-6,03654249622371E-8;
-3,91465227743176E-8;
-1,98393578505249E-8;
-1,02669425499916E-8;
-8,38691821147962E-9;
-6,39009170696213E-9;
1,35634936133276E-9;
1,34178921931153E-8;
2,32896449609183E-8;
2,60438780663155E-8;
2,33794764617904E-8;
2,23597754040202E-8;
2,87070146099561E-8;
4,04465836762812E-8;
4,77564455675647E-8;
3,98442724847726E-8;
1,37592238444106E-8;
-2,19111280545031E-8;
-5,17405795211191E-8;
-6,33175191023054E-8;
-5,4983887637763E-8;
-3,58356155257166E-8;
-1,83720557268439E-8;
-9,71893859386409E-9;
-8,03737137072696E-9;
-6,23524941067936E-9;
8,10143530814008E-10;
1,18018655078284E-8;
2,0833666667218E-8;
2,34208667044545E-8;
2,10942232706588E-8;
2,02585990165638E-8;
2,6111399977816E-8;
3,68719500156956E-8;
4,36347153528682E-8;
3,66019820124028E-8;
1,30637183952112E-8;
-1,92390772181866E-8;
-4,63480082957267E-8;
-5,70094412095582E-8;
-4,96832158155484E-8;
-3,25483336808888E-8;
-1,68803752799793E-8;
-9,12441118853136E-9;
-7,634579952601E-9;
-6,0214974558189E-9;
3,3568325204029E-10;
1,0274285984141E-8;
1,84725921671353E-8;
2,08829661294042E-8;
1,88732002354757E-8;
1,82056977772958E-8;
2,35616447067097E-8;
3,33489882842E-8;
3,95598468235405E-8;
3,33649744519859E-8;
1,22981877635066E-8;
-1,67163343021862E-8;
-4,11568198111703E-8;
-5,09014630773067E-8;
-4,45259056543838E-8;
-2,93259602857326E-8;
-1,53903508003767E-8;
-8,49722471205132E-9;
-7,18971300057358E-9;
-5,75993315089166E-9;
-7,11425208573726E-11;
8,84193831371602E-9;
1,62242336072716E-8;
1,84531725315339E-8;
1,67391741841877E-8;
1,62225809191901E-8;
2,10856099203807E-8;
2,99178417112643E-8;
3,55784299988586E-8;
3,01774563391793E-8;
1,14865719107843E-8;
-1,43559190266163E-8;
-3,62105822203896E-8;
-4,50492303954866E-8;
-3,95642555405492E-8;
-2,62057427920285E-8;
-1,39225652098963E-8;
-7,85141349606068E-9;
-6,71565348569273E-9;
-5,45968650010959E-9;
-4,13855052128038E-10;
7,51057366145619E-9;
1,41043530896784E-8;
1,61498879864806E-8;
1,47084014533636E-8;
1,43260700327525E-8;
1,87071663252129E-8;
2,66131237604974E-8;
3,17324973494904E-8;
2,7076557767365E-8;
1,06454669241834E-8;
-1,21681919961248E-8;
-3,15432596644532E-8;
-3,94962770605066E-8;
-3,48354106281589E-8;
-2,32133497330086E-8;
-1,24938029756654E-8;
-7,19981937518616E-9;
-6,22525360480385E-9;
-5,13414081558257E-9;
-6,9784324108378E-10;
6,28644329966865E-9;
1,21235216808817E-8;
1,39861960931018E-8;
1,27943378143365E-8;
1,25301971219464E-8;
1,64467209854047E-8;
2,34642240460098E-8;
2,80565315923178E-8;
2,40916936126527E-8;
9,79066584070624E-9;
-1,01577959025492E-8;
-2,71768298722257E-8;
-3,42737235600635E-8;
-3,03739249887428E-8;
-2,03739063902792E-8;
-1,11163788741518E-8;
-6,55094797326605E-9;
-5,72536696069251E-9;
-4,78760118963497E-9;
-9,28169693508041E-10;
5,16752091699497E-9;
1,02881615622873E-8;
1,19702179404318E-8;
1,10056044058093E-8;
1,08449375079754E-8;
1,43143631576329E-8;
2,04884353117124E-8;
2,45740418768148E-8;
2,12461646804113E-8;
8,93688372347107E-9;
-8,3251615278834E-9;
-2,31252867637816E-8;
-2,9404129144646E-8;
-2,61983951628661E-8;
-1,77013808540786E-8;
-9,80366424203266E-9;
-5,91413819445071E-9;
-5,22604421878988E-9;
-4,42914546453048E-9;
-1,10788040536384E-9;
4,15350864779834E-9;
8,60078867538979E-9;
1,01085254489923E-8;
9,3472723657097E-9;
9,27673917604719E-9;
1,23224008414077E-8;
1,76996669203247E-8;
2,13054260185442E-8;
1,8559471162164E-8;
8,09437051667267E-9;
-6,66719026010632E-9;
-1,93979548739672E-8;
-2,49016687699294E-8;
-2,23228182400536E-8;
-1,52075276923208E-8;
-8,56173865056933E-9;
-5,29411756080899E-9;
-4,73169441591279E-9;
-4,0674341545525E-9;
-1,24393928057231E-9;
3,24641882794914E-9;
7,06424978271255E-9;
8,40286571210531E-9;
7,82283196220348E-9;
7,82747888500717E-9;
1,04763375127194E-8;
1,51105643391531E-8;
1,8259156509307E-8;
1,60403138909965E-8;
7,27171078140363E-9;
-5,18390260648126E-9;
-1,59970741808338E-8;
-2,07714590455531E-8;
-1,87539988611641E-8;
-1,28990892317787E-8;
-7,39872536360543E-9;
-4,69991248364157E-9;
-4,25015842788552E-9;
-3,70345027624633E-9;
-1,33837730398866E-9;
2,43856902447935E-9;
5,67371056263683E-9;
6,85224610918223E-9;
6,43415992014775E-9;
6,50139617302185E-9;
8,77705693871649E-9;
1,2722536154001E-8;
1,54453268195196E-8;
1,37011001696054E-8;
6,47961428286722E-9;
-3,86591610313243E-9;
-1,29171124945339E-8;
-1,70132474540984E-8;
-1,54965125799666E-8;
-1,07798389970155E-8;
-6,3170964534897E-9;
-4,1332938634785E-9;
-3,78484878007869E-9;
-3,34751437829417E-9;
-1,40111028372271E-9;
1,72571465341172E-9;
4,42727357954964E-9;
5,45437647788805E-9;
5,17580461199847E-9;
5,29624671697263E-9;
7,22923071032857E-9;
1,05394999923818E-8;
1,28656005472791E-8;
1,15422273927098E-8;
5,72037733067252E-9;
-2,70697088132006E-9;
-1,01525220992759E-8;
-1,36201254598568E-8;
-1,25430039002714E-8;
-8,84825381173218E-9;
-5,319229132671E-9;
-3,59806423714166E-9;
-3,33942280449616E-9;
-2,99874964366153E-9;
-1,43033201353222E-9;
1,10551055428461E-9;
3,32075894455805E-9;
4,20598837402676E-9;
4,04821546909592E-9;
4,21038724011053E-9;
5,82736428760547E-9;
8,55892207559528E-9;
1,05197150077832E-8;
9,56893654269703E-9;
5,00275854460628E-9;
-1,69842028561746E-9;
-7,69125367037289E-9;
-1,05815080122373E-8;
-9,88875032768002E-9;
-7,10365945152003E-9;
-4,40591818899109E-9;
-3,096451630228E-9;
-2,91717690998452E-9;
-2,66296712868928E-9;
-1,43477629352373E-9;
5,70140812494894E-10;
2,34653279045564E-9;
3,10067655014346E-9;
3,04672457443602E-9;
3,24018944292686E-9;
4,56854451957985E-9;
6,77542180536896E-9;
8,40068891980944E-9;
7,77583783558424E-9;
4,327101964819E-9;
-8,31089281625632E-10;
-5,51949225781917E-9;
-7,88597456841882E-9;
-7,5235412206668E-9;
-5,53753212806902E-9;
-3,57633745129557E-9;
-2,63122162790307E-9;
-2,52047588982858E-9;
-2,34194392459942E-9;
-1,41593763441086E-9;
1,14545137286609E-10;
1,49628377626834E-9;
2,12882189813591E-9;
2,1628339354118E-9;
2,38070269926117E-9;
3,44845799691058E-9;
5,18408029860321E-9;
6,50483236646726E-9;
6,16110995254816E-9;
3,69837751009537E-9;
-9,43032689148402E-11;
-3,62396804512856E-9;
-5,51533949305097E-9;
-5,43439636923199E-9;
-4,14638296858336E-9;
-2,82907140020462E-9;
-2,20253540336892E-9;
-2,15098543076936E-9;
-2,03888351221401E-9;
-1,37865998059673E-9;
-2,66569159334329E-10;
7,65209372115781E-10;
1,28670910547518E-9;
1,39226160038251E-9;
1,6259432111244E-9;
2,45937974005106E-9;
3,77540646434803E-9;
4,8235606065623E-9;
4,71901396318466E-9;
3,11532996896468E-9;
0,00933343456900652;
0,0226297278401066;
0,0163727338242982;
0,00943309257151846;
0,0121693888654362;
0,00702616516964088;
0,00563481531908268;
0,00458270824434368;
0,000840498336585983;
0,00103239104514197;
-0,00119044007819886;
-0,00199195251678371;
-0,00280713637343458;
-0,00455368059373353;
-0,00488732402915495;
-0,00585589911224193;
-0,00594121473135527;
-0,0061824849792557;
-0,00699357322728028;
-0,00792070096598187;
-0,00934888696433965;
-0,0102428892968609;
-0,0105185010685665;
-0,0101085251666572;
-0,00920766651827573;
-0,00843029837100073;
-0,00783043562297022;
-0,00745747299225938;
-0,00704805476736504;
-0,00641867833236576;
-0,00567545446899229;
-0,00495848765345544;
-0,00445308146625938;
-0,00409076725336107;
-0,0036638254610928;
-0,00302656658865213;
-0,00222823107529435;
-0,00157282701861595;
-0,00136107414003354;
-0,00166524347956694;
-0,00222572398379547;
-0,00258706117988698;
-0,00240676248318894;
-0,00165718538407771;
-0,000624734944376503;
0,000316668648021712;
0,000963662390294196;
0,00137586765990694;
0,00176513050473593;
0,00227846074195101;
0,0028737108013164;
0,00337820824037197;
0,00366494171061663;
0,00378442527276708;
0,0039247475667188;
0,00423344827327301;
0,00465410369751915;
0,00492913043038779;
0,00478539746118326;
0,00416205756226423;
0,00329839587176465;
0,00260120650650376;
0,00238404786399474;
0,00267133494715541;
0,00320917048804042;
0,00366539495924002;
0,00385876742041146;
0,00384594369711222;
0,00381730400482821;
0,00390618776459783;
0,00407638812066486;
0,00417461879646236;
0,00408914717837627;
0,00386593779759208;
0,00367395030557559;
0,00364551902930608;
0,00373088353271462;
0,00370125625903253;
0,00331394944730822;
0,00251555609939433;
0,00151956636852029;
0,000688091146076091;
0,000299923656543835;
0,000376497762010937;
0,000692035529050903;
0,000951432170723198;
0,000993754676886045;
0,000869182770911953;
0,000746303835366123;
0,000742934811325316;
0,000826534623559948;
0,00086091344685695;
0,00074677413263249;
0,000524375713520544;
0,000342641018988382;
0,000317918031815349;
0,00040555162370147;
0,000402859612613645;
9,51194643972027E-5;
-0,000565180039846468;
-0,0107236143233577;
-0,0246910007904527;
-0,0187063514954026;
-0,0116223570915785;
-0,0139972376695804;
-0,00853592278041706;
-0,00701192164420426;
-0,00596902337434978;
-0,00223034052620459;
-0,00231727273203242;
8,9764770102301E-5;
0,00103463445501161;
0,00186474133114022;
0,00353260131235518;
0,00382392558617197;
0,00488786213403793;
0,00516656113294601;
0,00552145475455726;
0,00617835200158741;
0,00664177325195953;
0,00746065101942505;
0,00787759945066065;
0,00802158990928618;
0,00784053294550564;
0,00735462599638207;
0,00695105632456499;
0,00655991772530628;
0,00626843141271633;
0,00594145029401617;
0,00548465727348291;
0,00497854935463129;
0,00445879480103069;
0,00403463504754424;
0,00366783216288104;
0,00326335302686188;
0,00276323350872273;
0,00218226801627282;
0,00167054798956851;
0,00136622303119377;
0,00130576096976707;
0,0013714735992333;
0,00134804729352315;
0,001076994885522;
0,000543587097168976;
-0,000116332642968754;
-0,000724582543576833;
-0,001184347054603;
-0,00152244953589701;
-0,00184024545469063;
-0,00220794535875496;
-0,00260531958314402;
-0,0029492434252353;
-0,00317777054126185;
-0,00331523559522276;
-0,00345292371967651;
-0,00366309391218515;
-0,00391872416163763;
-0,00409378078798361;
-0,00405387526325558;
-0,0037683832011664;
-0,00335501810599823;
-0,00301538119036214;
-0,00290602384641246;
-0,00304040280014133;
-0,00329290750749285;
-0,00349792597421943;
-0,00356466112451329;
-0,00352164924990541;
-0,00346521661207386;
-0,00346340074366497;
-0,00349853137779942;
-0,00349315272529745;
-0,00339050236876577;
-0,00321419697747188;
-0,00305115813719415;
-0,00297002302477926;
-0,00294586985173998;
-0,00286092729216496;
-0,00258939694114811;
-0,00210309165226326;
-0,00151283381268478;
-0,00100787640255052;
-0,000734991493068136;
-0,000706566925519551;
-0,000804729943964133;
-0,000874201781479354;
-0,000829829745888532;
-0,000698122727003976;
-0,00056885904752361;
-0,000505247478516376;
-0,000490308807557506;
-0,000451226966526419;
-0,000334550776719416;
-0,000161841094590183;
-1,36458946043235E-5;
4,665250005158E-5;
4,29389813078806E-5;
8,55665514968118E-5;
0,000292248746372987;
0,000689730199491516;
0,00117541537967656;
0,00157389301522405;
0,00174943420821792;
0,00169132151600759;
0,00150982851923923;
0,00134983328006975;
0,0012909731749576;
0,00130920971109946;
0,00132185064796788;
0,00127090320865227;
0,00117271325013964;
0,00109530171238779;
0,00108866933718869;
0,00113332740007335;
0,00115522221037014;
0,00109622872582135;
0,000978919777215816;
0,000905709213630612;
0,000985675082198618;
0,00124377268380334;
0,00158554520735;
0,00184943614410226;
0,00191061949484991;
0,00175959928938436;
0,00149834397517216;
0,00126056898645037;
0,00111977201276094;
0,00105394619536906;
0,000987128251264524;
0,000866118859808882;
0,000706077444434578;
0,000569604269760552;
0,000502664755802678;
0,000487361274268369;
0,000455719667552144;
0,000354427509552628;
0,000204207631353372;
9,89307625030423E-5;
0,000138464481731398;
0,000345511424107361;
0,000633405700658298;
0,000854139674097602;
0,000893437763404623;
0,000742591480800423;
0,000494786088312198;
0,000272122782013297;
0,000141580165710626;
8,28698050946663E-5;
2,64724084178826E-5;
-7,63037516534485E-5;
-0,000211770420419575;
-0,000323010743009058;
-0,000368323683679368;
-0,000364221000224596;
-0,000372795074392141;
-0,000442734971216424;
-0,00055532586726896;
-0,000625345936948372;
-0,00056220115651546;
-0,000345504127852232;
-5,42338573759415E-5;
0,000177004875788754;
0,000244350048549048;
0,00013981940213513;
-5,21443723055073E-5;
-0,000220952087690949;
-0,000306057701394522;
-0,000326011351802946;
-0,000343916628444682;
-0,000403963065862511;
-0,000493857263716269;
-0,00056221712970142;
-0,0005714575137661;
-0,000536625777238931;
-0,000513921246105149;
-0,000547382057029221;
-0,00062016179309259;
-0,000655419255853275;
-0,000571532587637221;
-0,000350240030045527;
-6,28345356881878E-5;
0,000169352736278958;
0,000252784159368481;
0,000180306316716848;
2,79316080537709E-5;
-0,000104871932812952;
-0,000163699412280913;
-0,000165257392359545;
-0,000166247933577838;
-0,000206336997986901;
-0,000274462413243973;
-0,000324504351830779;
-0,000322753047251044;
-0,000282700954850871;
-0,000254694191919993;
-0,000278137869693672;
-0,000337893480265017;
-0,000365147864042603;
-0,00028687205585573;
-8,6752019411121E-5;
0,000171474394570531;
0,000379423852476049;
0,00045362743981584;
0,000387796503003715;
0,000249851907652594;
0,000128577429358809;
7,25125128691456E-5;
6,67936923691593E-5;
6,09500534451347E-5;
1,97222856041717E-5;
-4,69765969174812E-5;
-9,80607604387438E-5;
-0,000103517200948488;
-7,5311051964652E-5;
-5,81354569985218E-5;
-8,69276522658672E-5;
-0,000148182072553359;
-0,000180787449963041;
-0,000119951889257664;
4,8781951241743E-5;
0,000268927221990558;
0,000444504904958416;
0,000501673580329793;
0,000434947031708547;
0,000304476507624799;
0,000188804155067879;
0,000130843386026367;
0,000117472669458883;
0,000104148111460458;
5,97869850441133E-5;
-6,82720759583356E-6;
-5,944179296468E-5;
-7,15979223449545E-5;
-5,38359121008522E-5;
-4,5499206991586E-5;
-7,73104370360704E-5;
-0,000137357788184191;
-0,000171891822128093;
-0,000123982356817732;
1,90357013940571E-5;
0,000207532095357974;
0,000357266842332855;
0,000403490546666977;
0,00034143224841684;
0,000223834812403862;
0,000119499174047609;
6,59787146011734E-5;
5,17709821061015E-5;
3,79088997713389E-5;
-2,77352643294289E-6;
-6,25936994852916E-5;
-0,00010989595613297;
-0,000121604506896236;
-0,000106938659087452;
-0,00010021836125527;
-0,000128217233143527;
-0,000180552062900805;
-0,000210433383555444;
-0,000168352931090158;
-4,33447796970807E-5;
0,000121403023928514;
0,00025267980600072;
0,000294267286267173;
0,000242046578385689;
0,000141782477986861;
5,31154709145826E-5;
8,5602818477618E-6;
-1,87105973155439E-6;
-1,19202719375276E-5;
-4,50878122494056E-5;
-9,47288479025371E-5;
-0,000133497315939872;
-0,000141485255630146;
-0,000126673934027503;
-0,000118682390187289;
-0,000140591516765417;
-0,000183447197511992;
-0,000206960724310176;
-0,000168548968802196;
-5,88220898017317E-5;
8,50543169351623E-5;
0,000200165569299326;
0,000238251849165619;
0,000195803812978043;
0,000112088108605559;
3,82209053725096E-5;
2,03642628854409E-6;
-5,03294795482548E-6;
-1,18586766277529E-5;
-3,85249253621077E-5;
-7,93435558164679E-5;
-0,000110963041943074;
-0,000116406200279391;
-0,000102493452239334;
-9,44714913802216E-5;
-0,00011198764496299;
-0,000147405040837085;
-0,000166450581602757;
-0,000132944784375966;
-3,89435958936274E-5;
0,0094174092804057;
0,0228121636902591;
0,0165882771173157;
0,00961344793594187;
0,0122795275077573;
0,00707430743505489;
0,00565270295969495;
0,00459483534856003;
0,00084698826697997;
0,00101643912990888;
-0,00124082760285403;
-0,00206909350174542;
-0,00288906469576374;
-0,0046241751385403;
-0,00495138084611721;
-0,0059349992949778;
-0,00605041171895023;
-0,00630808639113527;
-0,00709158696568234;
-0,0079405126570933;
-0,00926632323052882;
-0,0100783977099065;
-0,0103266618413199;
-0,00994634074197065;
-0,0091043760160189;
-0,00837910277230387;
-0,00780496477334629;
-0,00743739402057625;
-0,00703328469644396;
-0,00642317499332064;
-0,0057091690261914;
-0,00501505772020596;
-0,0045143228474763;
-0,00414325828198994;
-0,00371168226635607;
-0,00308750558290259;
-0,00231464768546835;
-0,00167341573957544;
-0,00143959255680072;
-0,00168003151032399;
-0,00215688185163097;
-0,00245133542135794;
-0,00224888102472982;
-0,00152383034532052;
-0,000539835415981803;
0,000358661915768879;
0,000984277468554663;
0,00139169332379644;
0,00177624561355207;
0,00227352100095873;
0,00284464510658719;
0,00333020605409848;
0,00361277973932283;
0,00373900653023015;
0,00388276863600755;
0,0041806149159102;
0,00458043725917536;
0,00484378507623199;
0,00471761183792358;
0,00414539857043506;
0,00334890064461306;
0,0027054696700262;
0,00250623541256736;
0,00277407789398862;
0,00327332869436092;
0,00369538768085035;
0,00387175279485496;
0,00385512943018259;
0,00382275601489705;
0,00389890422235776;
0,00404997813563409;
0,00413320357754223;
0,00404442481434145;
0,0038265316976659;
0,00363727088665441;
0,00360032886752819;
0,00366935646088743;
0,00363059762181032;
0,00325709552201094;
0,00249879559406035;
0,00155545226201725;
0,000766190036239596;
0,000392346979672288;
0,00045419635245633;
0,000740139216827045;
0,000973335027738377;
0,00100269307385337;
0,000875327313402227;
0,000749692975750428;
0,000736642606688988;
0,000805654531050066;
0,000828598620129152;
0,000711962263150002;
0,000493643288667663;
0,000314020028133179;
0,000282879899387548;
0,000358173570360946;
0,000348600147090406;
5,12958502776283E-5;
-0,000578764077947872;
-0,0106975163409249;
-0,0246330270350858;
-0,0186373458059666;
-0,0115639915101174;
-0,0139605986466844;
-0,0085185283413934;
-0,00700401440613615;
-0,00596312678696842;
-0,00222644389746131;
-0,00232046752493918;
7,58829608952816E-5;
0,00101236078133988;
0,00184057161063495;
0,00351130169908005;
0,0038040756218889;
0,00486332384498684;
0,0051330912583787;
0,00548297133045921;
0,00614721827960032;
0,00663207704971857;
0,00747909290532354;
0,00791868435295159;
0,00807067337845303;
0,00788243468383736;
0,00738159177402229;
0,00696477380703066;
0,00656709574509434;
0,00627418756304703;
0,00594577616822111;
0,00548407535841893;
0,00497061855324389;
0,00444506399441648;
0,0040194668128579;
0,0036544127112641;
0,00325074525317767;
0,00274739431422678;
0,0021604267892958;
0,00164528165230337;
0,00134557290803616;
0,00129882859498841;
0,00138256854332205;
0,00137368992922866;
0,00110794476779741;
0,00057032230046732;
-9,86588754325683E-5;
-0,000714965726936507;
-0,00117872187043928;
-0,0015177425078461;
-0,0018364767166997;
-0,00220718688753247;
-0,00260900638754251;
-0,00295646960997276;
-0,00318601890551123;
-0,00332268579410958;
-0,00346009210839709;
-0,00367220862560399;
-0,00393127986210695;
-0,00410835781468304;
-0,00406616525677567;
-0,00377359093518505;
-0,00335089980931719;
-0,00300368095173411;
-0,00289132528716831;
-0,00302735209160515;
-0,00328384468309876;
-0,00349242998833544;
-0,00356093610602213;
-0,00351837600422975;
-0,00346242396195321;
-0,00346195319979762;
-0,00349899988972582;
-0,00349518184278496;
-0,0033931557977034;
-0,00321682443600029;
-0,00305391681964879;
-0,00297358967300581;
-0,00295064919878242;
-0,00286648912629415;
-0,00259462163487617;
-0,00210686153401626;
-0,00151467147835381;
-0,00100805236294413;
-0,000734127742081546;
-0,000705161724648843;
-0,000802990348886116;
-0,000872200136564603;
-0,000827695448366366;
-0,000696024538725041;
-0,000566833359678218;
-0,000503136021367577;
-0,000487951144398386;
-0,000448733818683394;
-0,00033232354200051;
-0,000160219655151332;
-1,24858464043872E-5;
4,7982047420378E-5;
4,49511854077904E-5;
8,78565108024887E-5;
0,000293248687711285;
0,000687459478277504;
0,0105022950858648;
0,0241937472504664;
0,0181116750393904;
0,0111162808965899;
0,0136750255991646;
0,00837526509170637;
0,00692677564385469;
0,00589321415013756;
0,0021639117692997;
0,00230613548076448;
-1,28366710081209E-5;
-0,000890210629605114;
-0,00171199197402751;
-0,00341500737105625;
-0,00372749107365727;
-0,00475407871348817;
-0,00495444807814756;
-0,00526777143047275;
-0,00600153139704292;
-0,00667774653143042;
-0,00777359411943204;
-0,00841116272188545;
-0,00862760833685021;
-0,00836482086313202;
-0,0077183268670476;
-0,00717266048037131;
-0,00671057961989932;
-0,00640285857751539;
-0,00605972029933032;
-0,00554910215901994;
-0,00496239697616881;
-0,00437919612198635;
-0,00394044749848262;
-0,00359499224998838;
-0,00320064974100765;
-0,00266304001459008;
-0,00201138686845376;
-0,00145938340263929;
-0,00121182655077161;
-0,00131931242413475;
-0,00160551768606066;
-0,00175694541027861;
-0,00154051910945332;
-0,00093679148806173;
-0,000142896172757425;
0,00058401135091805;
0,00110451260839337;
0,0014588097942722;
0,00179242964374996;
0,00220601452776949;
0,00267050286523395;
0,00306739746000939;
0,00330930419310719;
0,00343100242133308;
0,00356162245727334;
0,00380255938993544;
0,00411518741950221;
0,00432264946734264;
0,00423747526830502;
0,00381795995084183;
0,00322864176997501;
0,00274919977777781;
0,00259529000718968;
0,00278394042468;
0,00314090004856777;
0,00343811727280301;
0,00355124229087668;
0,0035194392422904;
0,00347382066273304;
0,00350630022183633;
0,00359223658949913;
0,00362647570877388;
0,00353241910452091;
0,00334190764978155;
0,00317137532401843;
0,00311207978837843;
0,00313002735870111;
0,00306805423970751;
0,00275940391444474;
0,00216752052929581;
0,00143948594001898;
0,000824666570186217;
0,00051511392027984;
0,000525765628718083;
0,000701391764858242;
0,000839010103317245;
0,000827970228285469;
0,00070294609550073;
0,000580135490014057;
0,000540781304741609;
0,000562582434025521;
0,000551840469945166;
0,000440244610381807;
0,00025559405785488;
0,000100537701912247;
5,52865491298966E-5;
8,91241000820633E-5;
6,24347519169187E-5;
-0,00017271849068243;
-0,000649063180392516;
-0,0105705533915791;
-0,024347008889707;
-0,0182935115959636;
-0,0112683393645766;
-0,0137677345814611;
-0,00841580534669181;
-0,00694197587570539;
-0,00590359685927529;
-0,00216960303229745;
-0,00229333126707708;
5,3827217030357E-5;
0,000952927867055895;
0,00177847618809518;
0,00347213138380922;
0,00377925835128877;
0,00481754581514097;
0,00504136674295667;
0,00536715791579895;
0,00607890326414332;
0,00669397055673418;
0,0077104834060441;
0,00828498731170984;
0,0084804104795988;
0,00823990737899905;
0,00763757002161023;
0,00713076460281603;
0,00668782979998793;
0,00638423233939738;
0,00604514396294493;
0,00554863171969581;
0,00498304432745385;
0,00441624473477;
0,0039809041486816;
0,00362939974578395;
0,00323186884109222;
0,0027032283899946;
0,0020688513571544;
0,00152625863287541;
0,00126369503068953;
0,00132863881757046;
0,00155963326073791;
0,00166733511491341;
0,00143652871867263;
0,000848459075612051;
8,52850726710674E-5;
-0,000614588107713673;
-0,00112157220646493;
-0,00147259182388449;
-0,00180299821998761;
-0,00220662982610531;
-0,00265652826949571;
-0,00304205075949101;
-0,00328125839546383;
-0,0034065274834449;
-0,00353887472567467;
-0,00377367554143578;
-0,00407488061122256;
-0,00427607416605828;
-0,00420027896080072;
-0,00380757410229051;
-0,0032529312058327;
-0,00280084819539315;
-0,00265600232573464;
-0,0028352205666331;
-0,00317360382728005;
-0,00345453225167983;
-0,0035594998531885;
-0,00352562190782985;
-0,00347797637058201;
-0,00350455450451513;
-0,00358199957817375;
-0,00360965414349435;
-0,0035139321573199;
-0,00332525266412085;
-0,00315557193993399;
-0,00309295866449861;
-0,00310489187921186;
-0,00303969960829321;
-0,00273589145510004;
-0,00215754924391426;
-0,00144676047812112;
-0,000845441166568548;
-0,000540586908261792;
-0,000547352819383895;
-0,000715021925148122;
-0,000845752914311948;
-0,000831316610404029;
-0,000705394914582686;
-0,000581704275919121;
-0,000540034843947846;
-0,000558667323595183;
-0,000545524348669434;
-0,000433218517916548;
-0,000248968578162339;
-9,40545641144027E-5;
-4,79157528562356E-5;
-8,03646529902636E-5;
-5,3054840276808E-5;
0,000181138225286528;
0,000655276217735637;
0,00124097561790705;
0,00171949865539203;
0,00192209801683792;
0,00183584197107296;
0,00159798665683664;
0,00138829496355404;
0,00130527616015627;
0,00131900609003407;
0,00132723652684017;
0,00125846244306367;
0,00113291502980734;
0,00103430504514742;
0,00102395595185278;
0,00107776578871551;
0,00110485499222737;
0,00103410308495443;
0,000893213069640738;
0,000807245859905267;
0,000909010040698034;
0,00122850510899288;
0,00165044620068218;
0,00197839488256404;
0,00206101831709472;
0,00188710375956392;
0,00158030719912046;
0,00130229854425617;
0,00114165524509916;
0,00107164764317724;
0,00100070768744624;
0,000864888514694786;
0,000682463094635999;
0,000528504381711412;
0,000457947996510681;
0,00044922308406817;
0,000421041750832395;
0,000309845914050604;
0,000140431791630121;
2,45124423958592E-5;
8,05851055454367E-5;
0,000335255196546443;
0,000685479269148055;
0,000955939298519271;
0,00101168599077156;
0,000842734601347115;
0,000559210600224642;
0,00030496188756346;
0,000158651579396186;
9,63072757956988E-5;
3,63355643848744E-5;
-7,82352543591447E-5;
-0,000231296613197171;
-0,000356334866452602;
-0,000404780547502145;
-0,000395981344630345;
-0,000402213127541084;
-0,000479962452557386;
-0,000607386495482506;
-0,000685703595091472;
-0,000610232580281435;
-0,000357698641774784;
-1,94988912476608E-5;
0,000249182935617638;
0,00032899255972341;
0,000211058757147385;
-7,45488024786944E-6;
-0,00019972472460166;
-0,000296533329172519;
-0,000319193948454549;
-0,000339755678487166;
-0,000408503622049598;
-0,00051134017196923;
-0,000589833697537738;
-0,000601390708602689;
-0,000563153856494938;
-0,000538739067269043;
-0,000577820012472569;
-0,000661259014032861;
-0,000702436755704485;
-0,000609652119952962;
-0,000362649631830517;
-4,16476272633023E-5;
0,000217376354538215;
0,000309955369581946;
0,000228386166509729;
5,76876658746555E-5;
-9,1286283881792E-5;
-0,000158107477789743;
-0,000161435318693729;
-0,000164169048697673;
-0,000210152900212796;
-0,00028706161315193;
-0,000343959736170417;
-0,000343758739920706;
-0,000301396110652248;
-0,000272210649198396;
-0,000299350658255338;
-0,000366118894405101;
-0,000397230898068175;
-0,000313079970420909;
-9,61365297468572E-5;
0,000183988426966553;
0,000409444052621783;
0,00048981217299342;
0,000418549068564839;
0,000269344877995668;
0,000138146780283844;
7,72137033570452E-5;
7,04356485406902E-5;
6,35350568899685E-5;
1,8740618033652E-5;
-5,32418491365834E-5;
-0,000108450039776603;
-0,000114905174423436;
-8,54522096979088E-5;
-6,76752042070527E-5;
-9,86153196428661E-5;
-0,000163843010998369;
-0,00019863730627666;
-0,000134655843950282;
4,31037206202737E-5;
0,000274920435551365;
0,000459820541550099;
0,000520447727822891;
0,000451313895137196;
0,000315548287734608;
0,000195218965427236;
0,000134976067150438;
0,000121060126479893;
0,000107176615455651;
6,11624107016402E-5;
-7,8108055903412E-6;
-6,22787127180761E-5;
-7,50284199288916E-5;
-5,69947261938954E-5;
-4,86107713899349E-5;
-8,12998574235402E-5;
-0,000142770361530431;
-0,000178111136814594;
-0,000129428538373918;
1,59162650343094E-5;
0,000207313407712999;
0,000359344752803478;
0,000406673555678071;
0,000344741344255245;
0,000226891065944297;
0,0001223539532464;
6,87344058823514E-5;
5,44096640544188E-5;
4,04078995671717E-5;
-3,03139494376933E-7;
-5,99967714031918E-5;
-0,000107217086355214;
-0,000119160276744779;
-0,000105028931269594;
-9,87093543287296E-5;
-0,000126490647770988;
-0,000178070457823233;
-0,000207564162005809;
-0,000166681250348651;
-4,49621372635355E-5;
0,000115325351748252;
0,00024300437498017;
0,000283730176599508;
0,000233775101523683;
0,000137506483848559;
5,23978317324858E-5;
9,60218895049164E-6;
-5,54766829908215E-7;
-1,03584839039982E-5;
-4,21611263279647E-5;
-8,95622120768657E-5;
-0,000126594236126293;
-0,00013447690241894;
-0,000120831526480677;
-0,000113574739726787;
-0,000134317338478437;
-0,00017457008384687;
-0,000196666370923251;
-0,00016105072641532;
-5,9236353229137E-5;
7,41069604630147E-5;
0,00018075790134995;
0,0002163649069172;
0,000177956310940406;
0,000101751178765075;
3,45562728654249E-5;
1,68053111485234E-6;
-4,7722431374608E-6;
-1,10156743578365E-5;
-3,51527086312364E-5;
-7,19771015040001E-5;
-0,000100482810268814;
-0,000105520901243171;
-9,32703344970566E-5;
-8,62379713136975E-5;
-0,000101796701913587;
-0,000133088727547288;
-0,000149862967384502;
-0,000120440353052309;
-3,81009046779283E-5;
6,93549284515396E-5;
0,0001554013720622;
0,000184702878855616;
0,000154973057419671;
9,50950451205768E-5;
4,22771941365738E-5;
1,65769753922766E-5;
1,17071273967896E-5;
6,92222405282761E-6;
-1,20553412291914E-5;
-4,10880626080285E-5;
-6,36213778598568E-5;
-6,7760403211033E-5;
-5,83828127018858E-5;
-5,31368044881423E-5;
-6,5591675036368E-5;
-9,03500942320482E-5;
-0,00010380271279361;
-8,13199645172904E-5;
-1,77568651727745E-5;
6,52399648070297E-5;
0,000131610500320868;
0,000154081162301145;
0,000130976136947452;
8,46229077961257E-5;
4,36582992972783E-5;
2,34538413654037E-5;
1,91597207786796E-5;
1,49079056010914E-5;
-1,70245615911527E-7;
-2,28915770958168E-5;
-4,06678391911583E-5;
-4,45014255667115E-5;
-3,8111632610849E-5;
-3,48253205866735E-5;
-4,48322148477152E-5;
-6,40364738129126E-5;
-7,47319297362108E-5;
-5,85496631565768E-5;
-1,17415178688839E-5;
4,95069359150042E-5;
9,84163139359949E-5;
0,000114856054256124;
9,7686189687031E-5;
6,34232524020253E-5;
3,31128349387417E-5;
1,79784340389631E-5;
1,44402697960749E-5;
1,0939890304214E-5;
-3,8259368179933E-7;
-1,71909175454907E-5;
-3,04015752975566E-5;
-3,35754647427538E-5;
-2,94114550731013E-5;
-2,74286108731037E-5;
-3,48418306144523E-5;
-4,87055684733111E-5;
-5,65138721338202E-5;
-4,54081966656839E-5;
-1,28683802610114E-5;
2,97219189200517E-5;
6,37378810619791E-5;
7,53199951414494E-5;
6,3794675781409E-5;
4,05758452033219E-5;
2,00490755940971E-5;
9,80089461364306E-6;
7,36393305815556E-6;
4,9527244890705E-6;
-2,6611502702234E-6;
-1,38847561716236E-5;
-2,27008938509638E-5;
-2,4906988539568E-5;
-2,23102702522287E-5;
-2,1105393670989E-5;
-2,59125772609159E-5;
-3,4791657803654E-5;
-3,97715775394575E-5;
-3,27948670032123E-5;
-1,24087757080655E-5;
1,41853177284194E-5;
3,54583417732993E-5;
4,30031478773279E-5;
3,65496178952566E-5;
2,30776932406712E-5;
1,11904874847328E-5;
5,31954468344832E-6;
3,96337060444901E-6;
2,60725093236065E-6;
-1,69810580290239E-6;
-8,00414669576826E-6;
-1,29472016167211E-5;
-1,42580454532965E-5;
-1,29717167849431E-5;
-1,24099419987822E-5;
-1,49527877823799E-5;
-1,95284543160666E-5;
-2,20772149661862E-5;
-1,86786086473532E-5;
-8,79665528858526E-6;
0,00933740517421735;
0,0226439330931659;
0,0163909189280039;
0,00944907814554039;
0,0121801665289614;
0,00703236675754781;
0,00563879922733259;
0,00458616090487459;
0,000843394408141703;
0,00103370708738714;
-0,00119133089075949;
-0,00199458245263409;
-0,00281041970508451;
-0,00455690562623166;
-0,0048906476875458;
-0,00585994771606272;
-0,00594628390228192;
-0,00618814307045118;
-0,00699898908654588;
-0,00792528490318713;
-0,00935257982072464;
-0,0102458621975536;
-0,0105206618247386;
-0,0101094138103912;
-0,00920688412724496;
-0,00842801297283415;
-0,00782737934717102;
-0,00745434683140738;
-0,00704490019179977;
-0,00641488616727604;
-0,00567048607817865;
-0,00495262558308143;
-0,00444738257471025;
-0,00408610441738867;
-0,00365987366721631;
-0,00302186275714583;
-0,00222160590335776;
-0,00156518518491388;
-0,00135587693108632;
-0,00166684424227425;
-0,00223643316616803;
-0,00260506942911699;
-0,00242666464954475;
-0,00167296558480905;
-0,000633140448743447;
0,000314810520675122;
0,000965049736854491;
0,00137781636030513;
0,00176759074053383;
0,00228340432783132;
0,00288264937509013;
0,00339024017851203;
0,00367723573169113;
0,00379479747866694;
0,00393392425900309;
0,00424462359399404;
0,0046696600915895;
0,00494706075403967;
0,00479869801767023;
0,00416229774846716;
0,00328131049672005;
0,00257023224203253;
0,0023489573244787;
0,00264270944699103;
0,00319260868886103;
0,00365953414394968;
0,00385820565993619;
0,00384637751631668;
0,00381867853202961;
0,0039115884119229;
0,00408812101456179;
0,00419127872479246;
0,00410645905969585;
0,00388065149365639;
0,00368711698248607;
0,00366173584444777;
0,00375351478223795;
0,0037274011627212;
0,00333373823623283;
0,00251726204354303;
0,0014973426514953;
0,00064668025931154;
0,000252608756236353;
0,000337528200035139;
0,000668894658884574;
0,000942331276203457;
0,000991613503677992;
0,000868404681799661;
0,000746830134100301;
0,000748738444528222;
0,000840553912769826;
0,000881342313508106;
0,000768190251477815;
0,000542682091834073;
0,000359144196298767;
0,000338322557097973;
0,000433995199996397;
0,000435735056422378;
0,000120298225806245;
-0,000562019391180024;
-0,0107495649876709;
-0,0247403023535615;
-0,0187629782377834;
-0,0116691957868445;
-0,014025333534548;
-0,00854739263131471;
-0,00701514651320386;
-0,00597060091629507;
-0,00223033171114267;
-0,00231101864018447;
0,000105690205541064;
0,00105811667971398;
0,00188947629685822;
0,00355384182160935;
0,00384317247769078;
0,00491166465447018;
0,00519964550563463;
0,00555967517194403;
0,00620786309573837;
0,0066462846439862;
0,00743212292883699;
0,0078225556275802;
0,00795811712319489;
0,00778789459097776;
0,0073228818297006;
0,00693784886187152;
0,00655590078096638;
0,00626626615358356;
0,00594107562091344;
0,00549124020751172;
0,00499587646635804;
0,00448452557560367;
0,00406181945992036;
0,00369124756751489;
0,00328464133582269;
0,00278955719132947;
0,00221877911300153;
0,00171271087523782;
0,00139895466194858;
0,00131135504673069;
0,00134120920850636;
0,00128898810358415;
0,00100868898571788;
0,000486819878538374;
-0,000150718980850239;
-0,000739109332877353;
-0,00118903055996039;
-0,00152514134253555;
-0,0018410048070644;
-0,00220125324414217;
-0,00258714057769515;
-0,00292207160866914;
-0,0031489951634636;
-0,00329040150459347;
-0,00343029446941662;
-0,00363509645874917;
-0,00387992308087271;
-0,00404897139321918;
-0,0040189592697828;
-0,00376199926776641;
-0,00338633600270927;
-0,00307699198136767;
-0,00297744127005238;
-0,00309986750318147;
-0,00332907648472026;
-0,00351341810809036;
-0,00356990639634801;
-0,00352481364262948;
-0,00346635613765665;
-0,00345678045454974;
-0,00347996438125681;
-0,00346522416399025;
-0,00336086157158326;
-0,0031885782891286;
-0,00302777113788745;
-0,00294105995101777;
-0,00290573554802804;
-0,00281456436796229;
-0,00255316336569458;
-0,00209614018335373;
-0,00154458204826499;
-0,00107073799585801;
-0,000807993571552367;
-0,000767449278109096;
-0,000841892157305094;
-0,00089030380214021;
-0,000835495044863818;
-0,000701661374384862;
-0,000570322961702737;
-0,000498803042553629;
-0,000471701644136779;
-0,00042307990508183;
-0,000304619698075753;
-0,000135936149652784;
1,004244547159E-5;
7,60159440717855E-5;
8,36264036356589E-5;
0,000132584108406249;
0,000329092158056194;
0,000697090320824217;
0,00114379892154827;
0,00151092091212711;
0,00167618101703003;
0,0016301449376556;
0,00147237867917087;
0,00133345679417572;
0,00128504004030485;
0,00130541032369635;
0,00132013778661443;
0,00127710948552381;
0,00119108914832559;
0,00112323185803229;
0,0011184213224027;
0,0011591115558982;
0,00117883774906836;
0,00112552388490582;
0,00101950757919562;
0,000952625710474831;
0,00102253138662082;
0,0012514052573194;
0,00155453066322137;
0,00178731033646559;
0,00183823520679723;
0,00169907267615134;
0,00146120016728641;
0,00124420078384702;
0,00111369938926052;
0,00104998098796792;
0,00098522839123418;
0,000872032529729812;
0,000723991497054529;
0,000596948443986914;
0,000531838641766163;
0,000512676065247766;
0,000478939857024103;
0,000383251842826894;
0,000244138807677216;
0,000145102237576386;
0,000174820282480014;
0,000353284613341301;
0,000603364080533451;
0,000793635463594348;
0,000822834637917172;
0,000683483755630875;
0,000458429336428959;
0,000255988307089814;
0,000135466644766381;
7,88099961788613E-5;
2,44296830449439E-5;
-7,07342874175765E-5;
-0,000194514694555794;
-0,000296563105596423;
-0,000340063623593835;
-0,000339670602655376;
-0,00035024446265675;
-0,000414721488358194;
-0,000516517944350231;
-0,000580457659493765;
-0,000526778216609842;
-0,000337712235028045;
-8,30149062291511E-5;
0,000118739958590137;
0,000176259306508525;
8,27481968779327E-5;
-8,73273265246081E-5;
-0,000236671267701816;
-0,000312132157303638;
-0,000330107419074234;
-0,000346065384755281;
-0,000398777813081113;
-0,000477416333937028;
-0,000536914380560468;
-0,000544380326419569;
-0,000513076803259681;
-0,000492261099619641;
-0,000520453295637109;
-0,000582852500757653;
-0,000612247235612484;
-0,000537392102077045;
-0,000342532758538975;
-9,01329706638757E-5;
0,000113812074548966;
0,000187782782853834;
0,0001257613075087;
-5,76795781816533E-6;
-0,000120026523552976;
-0,000169664809327727;
-0,000169336510060387;
-0,000168466353805195;
-0,000201559820211532;
-0,000258951450278929;
-0,000300533950603806;
-0,000297063177927456;
-0,000260333900751188;
-0,000234093330333932;
-0,000252504472159334;
-0,000302372810268887;
-0,000324027662630962;
-0,00025428637296119;
-7,9213051926664E-5;
0,000145824740900576;
0,00032697619277823;
0,00039215653009826;
0,000336154419937212;
0,000217877184619324;
0,000114108178089547;
6,67171745847689E-5;
6,27797640000915E-5;
5,86972724338247E-5;
2,40810038804581E-5;
-3,24751329012282E-5;
-7,55572875548E-5;
-7,93630541172529E-5;
-5,42576380453329E-5;
-3,87179894326635E-5;
-6,27457500783137E-5;
-0,000114665946996126;
-0,000141969874853954;
-8,91265684617873E-5;
5,608466134521E-5;
0,0002450413101227;
0,000395414240664293;
0,000444051871831802;
0,000386482283337666;
0,000274405166768249;
0,000175112921469062;
0,000125268228409412;
0,000113564827936616;
0,000101892381140952;
6,37258138671437E-5;
6,61375573343128E-6;
-3,84960289631325E-5;
-4,90812062107879E-5;
-3,41874401599081E-5;
-2,73522778731224E-5;
-5,4690460003595E-5;
-0,000105999111755698;
-0,000135555129843984;
-9,50660129199429E-5;
2,60465023813925E-5;
0,000185478572420317;
0,000311703924543492;
0,00034992804467538;
0,000296327981330764;
0,000195788564521327;
0,000106652290147306;
6,06626139939503E-5;
4,8002073706332E-5;
3,56767012019502E-5;
7,50374085695802E-7;
-5,02406443845628E-5;
-9,05616281923322E-5;
-0,000100787183939177;
-8,87519717411556E-5;
-8,33975066519074E-5;
-0,000107230250387674;
-0,000151449156336825;
-0,000176692795552295;
-0,000141444545038403;
-3,66705432130732E-5;
0,000101210739539119;
0,00021073487178792;
0,000244879975790606;
0,000200406961295117;
0,000115833805683866;
4,11564066463301E-5;
3,53233343940778E-6;
-5,47517040946514E-6;
-1,41066864354441E-5;
-4,19682670703122E-5;
-8,34705731686836E-5;
-0,00011579590878308;
-0,000122394623393454;
-0,000109975676210998;
-0,000103215307766354;
-0,000121274000974516;
-0,000156650615532628;
-0,000175876327182683;
-0,000143703795498463;
-5,25184600830505E-5;
6,67191358923467E-5;
0,000161860868336495;
0,000193076016350317;
0,000157666037359976;
8,82678427116045E-5;
2,71739445260895E-5;
-2,6823139959432E-6;
-8,45205342585347E-6;
-1,39803678833744E-5;
-3,57940778739107E-5;
-6,91691088897559E-5;
-9,48882120676478E-5;
-9,90396216393568E-5;
-8,72840749385065E-5;
-8,03616485565097E-5;
-9,43460607842624E-5;
-0,000122924096766413;
-0,00013803491981068;
-0,000110180162580588;
-3,30347411331329E-5;
6,7465936275155E-5;
0,00014773482898537;
0,00017454486878453;
0,000145696684845155;
8,84396065365233E-5;
3,80132986763978E-5;
1,34904645809663E-5;
8,90649364346599E-6;
4,44719762773492E-6;
-1,35913291619111E-5;
-4,12717171041472E-5;
-6,26629952507673E-5;
-6,625752377385E-5;
-5,67517935247351E-5;
-5,12863357706772E-5;
-6,31141400833025E-5;
-8,70037469474276E-5;
-9,98236486875967E-5;
-7,73115176565724E-5;
-1,43105286729124E-5;
6,78279300507088E-5;
0,000133315967192351;
0,000154937190869151;
0,000130943887242777;
8,36829471756212E-5;
4,19815345842959E-5;
2,1405391665459E-5;
1,7069727524348E-5;
1,28213720868376E-5;
-2,48226685614364E-6;
-2,56194781867814E-5;
-4,3641154778575E-5;
-4,72194396146352E-5;
-4,01767671789127E-5;
-3,63936727413377E-5;
-4,65713293312577E-5;
-6,64607416787142E-5;
-7,73929837908683E-5;
-5,98419078261065E-5;
-9,70571560324545E-6;
5,58078908089501E-5;
0,000107955316619101;
0,000124943821813645;
0,000105427699749937;
6,73251755359695E-5;
3,36764209741706E-5;
1,6883777461289E-5;
1,30343158423809E-5;
9,27062309446521E-6;
-3,2469341984829E-6;
-2,19445558215485E-5;
-3,65589445261675E-5;
-3,97244543512542E-5;
-3,44791488277124E-5;
-3,17761593009192E-5;
-4,00277497462524E-5;
-5,58707582811686E-5;
-6,46442000934634E-5;
-5,1071790049017E-5;
-1,19972075214699E-5;
3,90867880095826E-5;
7,97473428383843E-5;
9,30461647736573E-5;
7,79930522344519E-5;
4,85391295831837E-5;
2,25457279375172E-5;
9,58593446758016E-6;
6,61513344582692E-6;
3,71930130144509E-6;
-5,88654888051534E-6;
-2,02090732174531E-5;
-3,13827353192356E-5;
-3,37922115868928E-5;
-2,97761660343057E-5;
-2,76795088721926E-5;
-3,38770815158531E-5;
-4,57961247704821E-5;
-5,2343403528866E-5;
-4,20224064061233E-5;
-1,25154488591049E-5;
2,59885843046732E-5;
5,66640179826551E-5;
6,68822706054907E-5;
5,59665844138265E-5;
3,43466420617407E-5;
1,52906371811573E-5;
5,86457286310378E-6;
3,79439643896323E-6;
1,77345035882312E-6;
-5,16465927940165E-6;
-1,55406806734607E-5;
-2,36096321554828E-5;
-2,53025388785637E-5;
-2,23386767274843E-5;
-2,07584146112904E-5;
-2,51379294541539E-5;
-3,36023803331395E-5;
-3,82051813847495E-5;
-3,07805801742245E-5;
-9,74723377421047E-6;
1,76186808162337E-5;
3,94294252772324E-5;
4,68486930879426E-5;
3,94743198143175E-5;
2,46392910101149E-5;
1,15759387774287E-5;
5,14953856824502E-6;
3,76393970906734E-6;
2,40114352041659E-6;
-2,31025008955503E-6;
-9,34185047048872E-6;
-1,48063643308149E-5;
-1,59879875569593E-5;
-1,40625434334801E-5;
-1,30534052607326E-5;
-1,59639588444111E-5;
-2,15298207988876E-5;
-2,45531965258873E-5;
-1,97753266292545E-5;
-6,25528529169757E-6;
1,12735570317649E-5;
2,52295078450903E-5;
3,00803650845188E-5;
2,5661901840071E-5;
1,66105117968889E-5;
8,64718850587583E-6;
4,72431627258156E-6;
3,83579585456838E-6;
2,95194766916023E-6;
8,56891767160313E-8;
-4,12642933937993E-6;
-7,40834901235631E-6;
-8,21666564882721E-6;
-7,25567361439781E-6;
-6,80210134394114E-6;
-8,49882325000544E-6;
-1,16103057925148E-5;
-1,33152272305475E-5;
-1,086557582226E-5;
-3,87182650971714E-6;
5,12851631976913E-6;
1,22681548796737E-5;
1,48622228954903E-5;
1,29499962930721E-5;
8,8448979268432E-6;
5,24608215861906E-6;
3,46124779653606E-6;
2,99188266535144E-6;
2,51609935991121E-6;
1,23443913120966E-6;
-5,53610145189316E-7;
-1,95390292661268E-6;
-2,42744110827623E-6;
-2,27430325826935E-6;
-2,27637836557862E-6;
-2,9135984408413E-6;
-3,90350957065101E-6;
-4,45540763048148E-6;
-3,96422517401E-6;
-2,50955354641517E-6;
-7,55367001734736E-7;
5,96329877117449E-7;
1,28441866199524E-6;
1,51990941659059E-6;
1,63958750682723E-6;
1,77419522889862E-6;
1,83501086370562E-6;
1,7546992119081E-6;
1,65961857931576E-6;
1,75611737824871E-6;
2,05738729503924E-6;
2,28763850603345E-6;
2,13664540236552E-6;
1,64640893729436E-6;
1,29753010004082E-6;
1,59088949591699E-6;
2,42593764858748E-6;
2,88172849222648E-6;
1,75934576338644E-6;
-1,41417314525785E-6;
-5,72610982923386E-6;
-9,21849128831136E-6;
-1,01181870856256E-5;
-8,07139302696365E-6;
-4,39931358046925E-6;
-1,12277306062286E-6;
5,0122043288832E-7;
7,66431815138767E-7;
1,00937752990309E-6;
2,27559775012389E-6;
4,33875080829695E-6;
5,9476066055782E-6;
6,08503144299932E-6;
5,07825695851594E-6;
4,45773677388455E-6;
5,5386418200313E-6;
7,90172905815185E-6;
9,20627819555973E-6;
6,75933950807609E-6;
-2,36218262477017E-7;
0,0093238718858259;
0,0226126679156442;
0,0163534537973333;
0,00941733970209982;
0,0121602224813742;
0,00702285310976594;
0,00563440856275464;
0,00458284876194513;
0,000841157638173594;
0,00103527349559185;
-0,00118405327604307;
-0,00198282951770024;
-0,00279763969188516;
-0,00454561198879824;
-0,0048800984403994;
-0,00584695347658319;
-0,00592866538764452;
-0,00616794341325557;
-0,00698255624601573;
-0,00791978374968241;
-0,00936136707288817;
-0,010266127752125;
-0,0105450504384285;
-0,0101303749274713;
-0,00922059836569126;
-0,00843531346252049;
-0,00783152454738473;
-0,00745779572202889;
-0,007047643929209;
-0,00641528275109917;
-0,00566740451728619;
-0,00494680202627883;
-0,00444083418093082;
-0,00408028461343593;
-0,0036543641735956;
-0,00301487823604297;
-0,0022119542581175;
-0,00155401220007715;
-0,00134663745142645;
-0,00166336475974556;
-0,00224046671999258;
-0,0026151470628532;
-0,00243903647985293;
-0,00168385765357424;
-0,000640675936018;
0,000310249513558731;
0,000961962222251293;
0,00137510201089963;
0,00176526458082612;
0,00228217192160447;
0,00288297103588892;
0,00339180508830509;
0,0036792507728786;
0,00379671506117691;
0,00393588329738748;
0,00424720573511777;
0,00467321109739976;
0,00495120025571274;
0,00480244180138908;
0,00416466958132699;
0,00328192656291715;
0,00256941900005999;
0,00234739271861978;
0,00264095030380706;
0,00319087634640475;
0,00365782722076986;
0,00385651429765042;
0,00384475362528453;
0,00381714146962006;
0,00391004897066977;
0,00408647062548829;
0,00418956648220586;
0,00410492784329341;
0,00387952030561832;
0,00368628939766735;
0,00366077772766835;
0,00375205840274696;
0,00372571267015431;
0,00333291718947107;
0,00251873509237335;
0,0015018815012941;
0,000653653938798505;
0,000260116351854914;
0,000343426256245544;
0,000672015148245433;
0,000942990911214796;
0,000991050654245738;
0,000867635544405465;
0,00074587817641131;
0,000746851039550325;
0,000837148193013531;
0,000876768343623347;
0,000763555428003506;
0,000538845159615318;
0,000355814333887432;
0,000334222416394616;
0,000428165551079881;
0,000428980054016697;
0,000115447489188493;
-0,000561545414800865;
-0,0107420346024141;
-0,0247271352085183;
-0,0187482041437837;
-0,0116571869419135;
-0,0140184047108813;
-0,00854496635769007;
-0,00701495795840132;
-0,0059708413260589;
-0,00223097425911226;
-0,00231336037988638;
0,000100677542162985;
0,00105102978825328;
0,00188213035114159;
0,00354761914151097;
0,00383762417206872;
0,00490482603793252;
0,00519007572982746;
0,00554861696318168;
0,00619955417507879;
0,00664576709752045;
0,00744190998295147;
0,00784059072918407;
0,0079786481446994;
0,00780474671532784;
0,00733281241496929;
0,00694164357742642;
0,00655664964179743;
0,00626641446734218;
0,00594065212032941;
0,00548851014555645;
0,00498955566559283;
0,00447540760784356;
0,00405228514782756;
0,00368309732281789;
0,00327730025517757;
0,00278051307687957;
0,0022062078849305;
0,00169820371735179;
0,00138786698864286;
0,00131001505991167;
0,00135275044397622;
0,00131085287500649;
0,00103376768824521;
0,000507517516453113;
-0,000138376550599523;
-0,000734175482613016;
-0,00118777072860187;
-0,00152461366852995;
-0,00184118007337842;
-0,00220420835748037;
-0,0025944037767709;
-0,00293269702144411;
-0,00316016353963587;
-0,00329998874051235;
-0,00343897285112781;
-0,00364580072000761;
-0,00389477258423238;
-0,00406610691118015;
-0,00403216691938224;
-0,00376396418726229;
-0,00337344827718348;
-0,00305218950740726;
-0,00294886600590026;
-0,00307619377710122;
-0,0033148347566937;
-0,00350754241980191;
-0,00356817793441606;
-0,0035239181463844;
-0,00346626488417332;
-0,00345982735151838;
-0,00348786070324781;
-0,00347691100260774;
-0,00337319384677985;
-0,00319919168110275;
-0,00303740971363366;
-0,00295297000843055;
-0,00292225357951827;
-0,00283363404698047;
-0,00256794155024755;
-0,00209859015917154;
-0,00153074480384138;
-0,00104382481141284;
-0,000776891512668839;
-0,00074161085496158;
-0,000826249182489159;
-0,000883707279816306;
-0,000833382854266978;
-0,000700455954139599;
-0,000569996696122638;
-0,000501871651937692;
-0,000480005508855949;
-0,000435481395899498;
-0,000317746717483048;
-0,000147257387367284;
-2,66269545831131E-7;
6,32594235972499E-5;
6,59371501823411E-5;
0,000112153422560107;
0,000313191525583078;
0,000694246182912547;
0,00115820771811367;
0,00153919127882581;
0,00170893199182933;
0,00165740923916526;
0,00148895878079233;
0,00134055326572962;
0,0012874354510073;
0,0013068504434337;
0,00132064865049369;
0,00127405916828591;
0,00118255521058511;
0,00111040081095102;
0,00110480628554915;
0,00114734709475491;
0,00116810099766447;
0,00111222520205337;
0,00100107325672495;
0,000931328051962936;
0,00100589576007708;
0,00124824627547348;
0,00156918507837125;
0,00181628721520333;
0,00187187698878834;
0,00172712521419026;
0,00147831762610481;
0,00125160825056142;
0,0011162938629257;
0,00105159438802386;
0,000985884753806295;
0,000869040295361743;
0,000715386720576429;
0,000583940812285093;
0,000518008224387589;
0,000500705771068449;
0,000467993974626666;
0,00036968416500209;
0,000225338037560737;
0,000123375291662683;
0,000157796613603775;
0,000349893957581549;
0,000617999960918209;
0,000822776011969217;
0,000856731477451031;
0,00071179076271324;
0,000475752829409004;
0,000263554960428445;
0,000138197504249835;
8,05531932668081E-5;
2,5206932744634E-5;
-7,36259685668952E-5;
-0,000203046190261067;
-0,000309523387204022;
-0,000353868648316601;
-0,00035163581066038;
-0,000361204220163086;
-0,000428316851977087;
-0,000535354380490924;
-0,000602232957879453;
-0,000543885790020684;
-0,00034125387176669;
-6,86112312226856E-5;
0,000147593885760557;
0,00020988103152624;
0,000110864113053714;
-7,00738666430388E-5;
-0,00022907113226984;
-0,0003093161722894;
-0,000328269971956212;
-0,000345187299052292;
-0,000401532923119472;
-0,000485753370475541;
-0,000549639216320752;
-0,000557957687010908;
-0,000524859578359302;
-0,000503070438266831;
-0,000533873489487156;
-0,000601446868084254;
-0,000633751079662195;
-0,000554327660846914;
-0,000346155739897071;
-7,6137460667589E-5;
0,000142005635887628;
0,00022068805642254;
0,000153313879500584;
1,11829115595314E-5;
-0,00011250139951352;
-0,000166810843973099;
-0,00016743911057457;
-0,000167508975280663;
-0,000204153561780074;
-0,00026699879503601;
-0,000312872639596794;
-0,000310250115299568;
-0,00027179159734932;
-0,000244619966017942;
-0,00026558515313972;
-0,0003204988682998;
-0,000344998801919078;
-0,000270840506536028;
-8,28601456703322E-5;
0,000159268400046981;
0,000354203590358268;
0,000423983510520655;
0,000362837171754065;
0,000234332001861217;
0,000121465336428994;
6,95659129916472E-5;
6,47044180372164E-5;
5,97117340502545E-5;
2,16641601056366E-5;
-4,01599641208929E-5;
-8,73917371796346E-5;
-9,20311837121851E-5;
-6,52775104460319E-5;
-4,88569837727541E-5;
-7,53556946044794E-5;
-0,000132142211514122;
-0,000162198116210821;
-0,000105129997599516;
5,24614060935564E-5;
0,000257820543937665;
0,000421433058753445;
0,000474512649428937;
0,000412050441416983;
0,000290208235657643;
0,000182225784498042;
0,00012807474025474;
0,00011548814051861;
0,000102943776503351;
6,1495697275901E-5;
-6,53296542533078E-7;
-4,97349288700255E-5;
-6,11305993351367E-5;
-4,4681267058868E-5;
-3,70210180281949E-5;
-6,67260421114E-5;
-0,000122682230407986;
-0,000154874173527309;
-0,000110383680861791;
2,24883081156705E-5;
0,000197510141308717;
0,000336329919439292;
0,000378802295627099;
0,000320593425154901;
0,000210819444350997;
0,000113460854177622;
6,33968522022761E-5;
4,99004254693565E-5;
3,67479309796727E-5;
-1,28715465061248E-6;
-5,70492918020566E-5;
-0,000101136637806632;
-0,000112142496893567;
-9,86527537986112E-5;
-9,25327643922578E-5;
-0,000118612027911818;
-0,000167229441132175;
-0,000194975245102066;
-0,000155971829679207;
-4,01285804571285E-5;
0,000112437197418309;
0,000233835126697195;
0,000272007066474599;
0,000223231603068383;
0,000130003145014773;
4,76149887589596E-5;
6,17024972069367E-6;
-3,62118801171108E-6;
-1,30302596860569E-5;
-4,38111318977522E-5;
-8,97934496175449E-5;
-0,000125659366897845;
-0,000133002678516886;
-0,000119235664857596;
-0,000111771547922196;
-0,000131944507953311;
-0,000171448746062946;
-0,000193029820981068;
-0,000157363713037001;
-5,58475393452069E-5;
7,71048071520626E-5;
0,000183346722918056;
0,000218346978027363;
0,000178955054338653;
0,000101513023258535;
3,32489441925584E-5;
-1,5996335825391E-7;
-6,65859692290123E-6;
-1,29116466689867E-5;
-3,7443928872013E-5;
-7,49908632086649E-5;
-0,000104010961012988;
-0,000108867057036884;
-9,58728164176467E-5;
-8,83092775990474E-5;
-0,000104267512719304;
-0,000136687768392478;
-0,000153998193101827;
-0,000122920396219482;
-3,62121455011768E-5;
7,69935148181589E-5;
0,000167555616924832;
0,000197895274040376;
0,000165392601301013;
0,000100721072088873;
4,36815242084157E-5;
1,58821533995953E-5;
1,06260928145401E-5;
5,49683705018206E-6;
-1,50530011293661E-5;
-4,65873459845171E-5;
-7,10318442032555E-5;
-7,52880987562948E-5;
-6,4653787757671E-5;
-5,86095548254817E-5;
-7,22657921520664E-5;
-9,97040359390115E-5;
-0,000114562353860204;
-8,91011502765672E-5;
-1,73189490504875E-5;
7,64957718711479E-5;
0,000151453619653685;
0,000176340912723232;
0,000149021439858303;
9,498117119728E-5;
4,72290062935068E-5;
2,36551780800743E-5;
1,8704871473044E-5;
1,38421779902635E-5;
-3,76300767588317E-6;
-3,04325329633708E-5;
-5,12562935442478E-5;
-5,54513009695333E-5;
-4,73890832132937E-5;
-4,30882971827047E-5;
-5,49468379995879E-5;
-7,80885627035776E-5;
-9,08956744392783E-5;
-7,06682672250034E-5;
-1,25325023361633E-5;
6,36276071153462E-5;
0,000124419445523593;
0,000144407323559038;
0,000121889114780718;
7,76378446029778E-5;
3,84972452253879E-5;
1,89839846948589E-5;
1,45770184438001E-5;
1,02545112395225E-5;
-4,35575070212547E-6;
-2,62655515528926E-5;
-4,34316283789888E-5;
-4,71677068227082E-5;
-4,10093165408107E-5;
-3,78476992867516E-5;
-4,76328562735228E-5;
-6,64337154931552E-5;
-7,69187264148374E-5;
-6,0937635978987E-5;
-1,46337883351653E-5;
4,60809203944481E-5;
9,45706056546686E-5;
0,000110603123311828;
9,28635775347673E-5;
5,78784218066369E-5;
2,69409145555598E-5;
1,15320293215895E-5;
8,05975017759782E-6;
4,65973471254103E-6;
-6,83375578764684E-6;
-2,40541775151046E-5;
-3,7533305167144E-5;
-4,04668218863104E-5;
-3,56403809588683E-5;
-3,31415340717186E-5;
-4,07275915798885E-5;
-5,53157367141532E-5;
-6,34137273961535E-5;
-5,09434605916648E-5;
-1,49568716545771E-5;
3,2188421818242E-5;
6,98978265759877E-5;
8,25886085450969E-5;
6,92903394873934E-5;
4,27366712318309E-5;
1,92669449179567E-5;
7,65470358305245E-6;
5,13731675671697E-6;
2,66527042682637E-6;
-5,96153348285408E-6;
-1,89305778550198E-5;
-2,90657702229045E-5;
-3,12364772783576E-5;
-2,75601932202891E-5;
-2,56310953581574E-5;
-3,1257902528711E-5;
-4,21115611990969E-5;
-4,81084736562952E-5;
-3,87832666451437E-5;
-1,19917377369323E-5;
2,30622955488178E-5;
5,11400763300638E-5;
6,07780961822686E-5;
5,13105573520446E-5;
3,2113800337608E-5;
1,51448399665749E-5;
6,78413349971489E-6;
5,00331543500828E-6;
3,24043211125082E-6;
-2,96870126771587E-6;
-1,23007071173047E-5;
-1,96014959240503E-5;
-2,12155197721341E-5;
-1,86701991612854E-5;
-1,73621592271178E-5;
-2,1384036463006E-5;
-2,90705845601684E-5;
-3,33371983917513E-5;
-2,68947076139769E-5;
-8,30385997443084E-6;
1,60041116192647E-5;
3,5494773240977E-5;
4,23203160463166E-5;
3,60816927509623E-5;
2,32108356092808E-5;
1,18239639482097E-5;
6,20573172039432E-6;
4,97130953203695E-6;
3,73591411251298E-6;
-4,46570860063866E-7;
-6,68093491978453E-6;
-1,15801939168891E-5;
-1,27768140136304E-5;
-1,1282548676331E-5;
-1,05763698598871E-5;
-1,32547169170133E-5;
-1,82316843057005E-5;
-2,10358528338861E-5;
-1,71434552144543E-5;
-5,72778400945506E-6;
9,19277338570741E-6;
2,11742697272169E-5;
2,55104835359792E-5;
2,20332942363305E-5;
1,46181632334821E-5;
8,0490171966269E-6;
4,79346803145728E-6;
4,02455415961768E-6;
3,24298376120199E-6;
8,16086954076521E-7;
-2,73214897557436E-6;
-5,54319978069491E-6;
-6,36262564283971E-6;
-5,75653767334955E-6;
-5,54853093409246E-6;
-7,04475161228968E-6;
-9,65971122631522E-6;
-1,11746286083524E-5;
-9,44748721925988E-6;
-4,17813160393938E-6;
2,69166448110106E-6;
8,23534566670318E-6;
1,04459438137385E-5;
9,35295636808332E-6;
6,63710646939469E-6;
4,22385520211415E-6;
3,02335313047395E-6;
2,68667989015704E-6;
2,32857672298005E-6;
1,43955605818967E-6;
2,25451106975551E-7;
-7,61771907601005E-7;
-1,21820683561591E-6;
-1,32935467680016E-6;
-1,50686325171554E-6;
-1,95751865612247E-6;
-2,52286313887552E-6;
-2,90225983410697E-6;
-2,97978615144724E-6;
-2,90219482824588E-6;
-2,84604647557022E-6;
-2,75100765495665E-6;
-2,33395077609343E-6;
-1,39832839040034E-6;
-1,23451666048745E-7;
9,95808867826046E-7;
1,55206845343221E-6;
1,60081642143347E-6;
1,62037429362831E-6;
2,04904625469396E-6;
2,82367511435043E-6;
3,39444952155701E-6;
3,2646790722344E-6;
2,56964919017543E-6;
2,08557732040842E-6;
2,52943415226252E-6;
3,70038310058436E-6;
4,28875723019035E-6;
2,71151799580433E-6;
-1,55176880297501E-6;
-7,19857959204604E-6;
-1,16688619265663E-5;
-1,27649220484015E-5;
-1,01510672252405E-5;
-5,55945725867784E-6;
-1,50345977980952E-6;
5,11983009677912E-7;
8,79356009901019E-7;
1,21124246063703E-6;
2,73327583096405E-6;
5,15839792294504E-6;
7,02242796914108E-6;
7,16522394260504E-6;
5,98817192684411E-6;
5,25063621703938E-6;
6,43301036686049E-6;
9,0370799925483E-6;
1,0423892822071E-5;
7,60987789321013E-6;
-2,32349281018076E-7;
-1,0582064959591E-5;
-1,88234768832691E-5;
-2,11863742025859E-5;
-1,72213091504261E-5;
-9,93371648192888E-6;
-3,48989191179886E-6;
-2,92324366056045E-7;
3,27152499103811E-7;
9,0700045826864E-7;
3,31444539516869E-6;
7,07949674076653E-6;
9,99367932205541E-6;
1,0357773449311E-5;
8,78963091065355E-6;
7,84613771010743E-6;
9,62581371074723E-6;
1,33891634043412E-5;
1,54223822684302E-5;
1,16114364238425E-5;
8,82284663632323E-7;
-1,32621677187573E-5;
-2,45518043792024E-5;
-2,79530499519053E-5;
-2,29256801397777E-5;
-1,34960235190442E-5;
-5,15342672215754E-6;
-1,01753039006399E-6;
-1,99818531675913E-7;
5,76200432129358E-7;
3,68803075873631E-6;
8,5196397451016E-6;
1,22713745818791E-5;
1,2816832521658E-5;
1,09456270303618E-5;
9,84522503354108E-6;
1,21016623357605E-5;
1,67845689712524E-5;
1,93338077342496E-5;
1,47473192893677E-5;
1,75848256257167E-6;
-1,53593784022417E-5;
-2,90418088732022E-5;
-3,32689967468602E-5;
-2,74305785109078E-5;
-1,63478046685163E-5;
-6,53781859064846E-6;
-1,67602884833452E-6;
-7,03051726322102E-7;
2,27706181751377E-7;
3,88670849333501E-6;
9,54486155908413E-6;
1,39480432097241E-5;
1,46425371879531E-5;
1,25498324169624E-5;
1,13390970450692E-5;
1,39674823418212E-5;
1,93586840769585E-5;
2,23097790237338E-5;
1,71465230416174E-5;
2,45783525091994E-6;
-1,69009026221562E-5;
-3,23909664644731E-5;
-3,72526165455762E-5;
-3,08237170085134E-5;
-1,85198414291954E-5;
-7,62391685799394E-6;
-2,22395126323949E-6;
-1,13355124355104E-6;
-8,48108108954354E-8;
3,98179657539825E-6;
1,02533523677534E-5;
1,51423032334659E-5;
1,59559704272758E-5;
1,37124522406752E-5;
1,24310461593673E-5;
1,53371984859618E-5;
2,1248388849804E-5;
2,44986132727381E-5;
1,89319152495914E-5;
3,03521166814739E-6;
-1,79200903509448E-5;
-3,47030164016985E-5;
-4,00308562423243E-5;
-3,32059188866562E-5;
-2,00616441319401E-5;
-8,41634291583186E-6;
-2,64477206402537E-6;
-1,47203174373139E-6;
-3,39531902016912E-7;
4,0101692657081E-6;
1,07060046434881E-5;
1,59331321508119E-5;
1,68373703952043E-5;
1,45025406117083E-5;
1,31828674894525E-5;
1,62821211806768E-5;
2,25463329863376E-5;
2,60035711030874E-5;
2,01826446696048E-5;
3,50557828496798E-6;
-1,84851388150507E-5;
-3,61123847349203E-5;
