0,00931502443120376;
0,0225943043333598;
0,0163319568154889;
0,00939932306404377;
0,0121490462067338;
0,00701770847224521;
0,00563225045338979;
0,00458134267622063;
0,000840287088913861;
0,00103661035101636;
-0,00117940277009454;
-0,00197560163392662;
-0,00278988809689712;
-0,00453884292535613;
-0,0048738591812641;
-0,0058392921901686;
-0,00591823332255028;
-0,00615600185083118;
-0,00697307647452457;
-0,00791728815764802;
-0,00936797898619006;
-0,0102799989645759;
-0,0105613448089958;
-0,010144089565665;
-0,00922919351423159;
-0,00843939126877337;
-0,00783336519544332;
-0,0074591432263502;
-0,00704850796101865;
-0,00641449067050954;
-0,00566413373851239;
-0,00494159876038338;
-0,0044352177261018;
-0,00407536677283662;
-0,00364981340472264;
-0,00300926516819997;
-0,00220429550772276;
-0,00154523121142282;
-0,00133962551868182;
-0,00166140370099983;
-0,00224509407575076;
-0,00262503382486019;
-0,00245071111975177;
-0,00169373847014011;
-0,000646947197353348;
0,000307166579628485;
0,000960460120694991;
0,00137395579062568;
0,00176447001697706;
0,00228255006273418;
0,00288509462748264;
0,00339529445342834;
0,00368305554355114;
0,00380006943951962;
0,00393901234298141;
0,00425108046438841;
0,00467849442297564;
0,00495726456458123;
0,00480734159943631;
0,00416620925707068;
0,00327908166178834;
0,00256306513942322;
0,00233980906038879;
0,00263447683099486;
0,00318669592476564;
0,00365567558550433;
0,00385536986600321;
0,00384384339099174;
0,00381646561948365;
0,00391012212572306;
0,00408764782033848;
0,00419161267556938;
0,00410720025606316;
0,00388155382469412;
0,00368821667545682;
0,00366317195072019;
0,00375530445124204;
0,00372943953928431;
0,0033359994136623;
0,00251991859836886;
0,00150058691518425;
0,000650365398299646;
0,000256082319779966;
0,000339913396248018;
0,000669659103021431;
0,00094166222268955;
0,000990232701575512;
0,000866944713430156;
0,000745318306609396;
0,000746672716439008;
0,000837518927590483;
0,000877577446698421;
0,000764510597511565;
0,000539739811939935;
0,000356701957172737;
0,000335334893867085;
0,000429649373893727;
0,000430684371517902;
0,000116949812369248;
-0,000560692241706457;
-0,0107420281373192;
-0,0247278252165855;
-0,0187492225533665;
-0,0116581838749091;
-0,0140192121193908;
-0,00854559937916407;
-0,0070155033092992;
-0,00597135121569128;
-0,00223144188248227;
-0,00231375988594384;
0,000100354109623655;
0,00105077729417593;
0,00188195407182492;
0,00354753197162692;
0,00383761263867098;
0,00490483294056306;
0,00519004576185987;
0,00554858568494736;
0,00619969388054664;
0,00664631314898828;
0,00744298812181388;
0,00784207027490379;
0,00798015528609713;
0,00780585878153208;
0,00733330321467591;
0,00694159342442478;
0,00655633260903301;
0,00626605635044558;
0,00594026200732962;
0,00548792523700568;
0,00498865001749643;
0,00447426431212155;
0,00405115841008287;
0,00368218358934715;
0,00327653021418409;
0,00277958827898233;
0,00220490471614993;
0,00169671314891694;
0,00138685687168624;
0,00131028921487877;
0,00135470420191671;
0,00131412301191252;
0,00103736513767055;
0,000510378929360992;
-0,000136804536094417;
-0,000733734317077132;
-0,00118788866263518;
-0,00152483565805599;
-0,00184149538471583;
-0,00220493553659088;
-0,00259577928316193;
-0,00293456534282755;
-0,00316206588907955;
-0,00330157786981585;
-0,00344036381283642;
-0,0036474896980448;
-0,00389712104289783;
-0,00406879667842893;
-0,00403412482869261;
-0,00376392167335619;
-0,0033707892986012;
-0,00304746599145073;
-0,00294356737628358;
-0,0030719044037571;
-0,00331237429183137;
-0,00350668960864255;
-0,00356812047472834;
-0,00352401586640715;
-0,00346650595423977;
-0,00346065625499041;
-0,00348960322645071;
-0,0034793534779018;
-0,00337571297549978;
-0,00320131899879365;
-0,00303929688553209;
-0,0029552716497292;
-0,00292544149630314;
-0,00283728830184471;
-0,00257066505663059;
-0,0020987431451127;
-0,00152753462467656;
-0,00103795267127264;
-0,000770243770684203;
-0,000736185181887757;
-0,00082307667342547;
-0,00088251784858458;
-0,000833174920642155;
-0,000700443809029551;
-0,0005701678656858;
-0,000502769764213148;
-0,000482026628613184;
-0,000438366456286313;
-0,00032074381152976;
-0,000149803341113357;
-2,54117673719358E-6;
6,0477724196178E-5;
6,20911489244853E-5;
0,000107742073414388;
0,000309863026991778;
0,000693927830597242;
0,00116182926293171;
0,00154593739144898;
0,00171661168802418;
0,00166370771522352;
0,0014926824910205;
0,0013420088275883;
0,00128776808946435;
0,0013069561715942;
0,00132054020304035;
0,0012731176487305;
0,00118033125412929;
0,00110718755373824;
0,00110145233140762;
0,0011444867747904;
0,00116553305213375;
0,0011090798239436;
0,000996729109207628;
0,000926342924344244;
0,00100210436548963;
0,00124778920796282;
0,0015730941174454;
0,00182366394317369;
0,00188030746156532;
0,00173406257996162;
0,00148244926719708;
0,00125326651505638;
0,00111672734976651;
0,00105177833130044;
0,000985831827886874;
0,000868077412378135;
0,000713026203539444;
0,000580499898811768;
0,00051440410731402;
0,000497623180455988;
0,000465216861586479;
0,000366278253360634;
0,000220637399525578;
0,000117978805592838;
0,000153668731420144;
0,000349323314619071;
0,000622089478504824;
0,000830571333554109;
0,000865667258252197;
0,000719162687527409;
0,000480167260388739;
0,000265360577834895;
0,000138711094936924;
8,08020520396692E-5;
2,52034047948929E-5;
-7,45907301097133E-5;
-0,000205485065276087;
-0,000313103725532562;
-0,00035762919093391;
-0,000354859531122376;
-0,00036411640778692;
-0,000431892305678741;
-0,000540286861457195;
-0,000607897943049324;
-0,000548238512276948;
-0,000341914449211806;
-6,44325235537942E-5;
0,000155625074811126;
0,000219110031115199;
0,000118493856339838;
-6,54849923429918E-5;
-0,000227166187011554;
-0,000308740610103049;
-0,000327967917564395;
-0,000345146944585959;
-0,000402482921017874;
-0,000488220457752872;
-0,000553282813120052;
-0,0005617936256792;
-0,000528154162117112;
-0,000506053419100436;
-0,000537539548059184;
-0,000606503164212598;
-0,000639560740231784;
-0,000558808139769915;
-0,000346884802805536;
-7,19469697499742E-5;
0,000150116523854272;
0,000230028577761226;
0,000161049737227041;
1,58528980384638E-5;
-0,000110538935331072;
-0,000166189590208254;
-0,000167094668438074;
-0,000167430241362471;
-0,000205075342171372;
-0,000269451962609077;
-0,000316515051798668;
-0,000314092736267121;
-0,000275097379537511;
-0,000247619058613856;
-0,000269274551976814;
-0,000325586842696945;
-0,000350847426217829;
-0,000275365621312666;
-8,36387320564368E-5;
0,000163405689910375;
0,000362262203195608;
0,000433281656708789;
0,000370550342563158;
0,000239003458047668;
0,000123449112319262;
7,02181771733166E-5;
6,50811898790931E-5;
5,9823298293165E-5;
2,07810825885086E-5;
-4,25644917718915E-5;
-9,09793460343179E-5;
-9,5823132842519E-5;
-6,85446028630628E-5;
-5,1826358315344E-5;
-7,90119156453811E-5;
-0,00013718434330652;
-0,000167996648910119;
-0,000109629463810248;
5,16499644192939E-5;
0,000261851060053008;
0,000429329677477579;
0,000483640121654109;
0,00041963326937323;
0,000294814253811072;
0,000184200006136288;
0,000128745021982997;
0,000115888106319216;
0,000103082805772377;
6,06593108620774E-5;
-2,98101551995117E-6;
-5,32237921349739E-5;
-6,48246992184742E-5;
-4,7868518586283E-5;
-3,99227462629261E-5;
-7,03022097095306E-5;
-0,000127614187396332;
-0,00016054862633776;
-0,000114798817200714;
2,16586823942258E-5;
0,000201390806545628;
0,000343975196474792;
0,000387654232255454;
0,000327957665645091;
0,000215304890697954;
0,000115399722312024;
6,40739028235479E-5;
5,03154836581478E-5;
3,69094265894026E-5;
-2,07093274914084E-6;
-5,9277806353099E-5;
-0,000104491437628786;
-0,000115700666802214;
-0,000101726827925962;
-9,53359950567197E-5;
-0,000122069940552041;
-0,000171998789218872;
-0,000200465243331664;
-0,000160254452505905;
-4,09635469859026E-5;
0,00011613438826903;
0,000241158107832042;
0,000280499784392915;
0,000230306568644655;
0,000134323572779886;
4,94973401848709E-5;
6,84445689025424E-6;
-3,19813692113192E-6;
-1,28509093726716E-5;
-4,45382090879435E-5;
-9,1905526765164E-5;
-0,000128852522653985;
-0,000136395017446752;
-0,000122170272289517;
-0,000114451820260036;
-0,000135253798275804;
-0,00017601380610069;
-0,000198287300347616;
-0,000161475166409265;
-5,66767680261268E-5;
8,05932546905385E-5;
0,000190292829126682;
0,000226415693129989;
0,000185685746579066;
0,00010563353262701;
3,50577651684129E-5;
5,03264990173527E-7;
-6,23375455018041E-6;
-1,27187061299265E-5;
-3,8111834615681E-5;
-7,69738778172283E-5;
-0,000107021815221471;
-0,00011207098917781;
-9,86479850104709E-5;
-9,08478816517354E-5;
-0,000107404861435422;
-0,000141016506885735;
-0,00015898613131226;
-0,000126830607656949;
-3,70262396685626E-5;
0,00941368931345754;
0,0228038145510958;
0,0165782291944657;
0,00960483408908078;
0,0122740070224101;
0,00707157083108439;
0,00565134472618329;
0,00459375740176355;
0,000846199531377279;
0,00101673169180003;
-0,0012388722293765;
-0,00206579850229552;
-0,00288542445534494;
-0,00462093645972803;
-0,00494831788127299;
-0,00593111484126725;
-0,00604499024946289;
-0,00630174185517809;
-0,00708636435238404;
-0,00793881362023438;
-0,00926936874876328;
-0,0100853504229119;
-0,0103350672864856;
-0,00995357065565691;
-0,00910903461949095;
-0,00838144268491645;
-0,00780615691546767;
-0,0074383535531888;
-0,00703400240591353;
-0,00642298765093508;
-0,00570758886517912;
-0,00501235146921177;
-0,00451131716222189;
-0,00414057453747014;
-0,00370913306349782;
-0,00308426201544553;
-0,0023101142723264;
-0,00166810053743283;
-0,00143519186204704;
-0,001678539813756;
-0,00215931870261209;
-0,00245701853157601;
-0,00225578983852223;
-0,00152979702710464;
-0,000543704974510577;
0,000356688092865303;
0,000983241758941539;
0,001390846921481;
0,00177559783863727;
0,00227361761660759;
0,00284588834255667;
0,00333238029788131;
0,00361521069864178;
0,00374118682019705;
0,00388485076516692;
0,0041832749180862;
0,00458416151249132;
0,00484816151703966;
0,00472126060683198;
0,00414669489986562;
0,00334700839575803;
0,00270093148837746;
0,00250067942460769;
0,00276925514009372;
0,00327017585761056;
0,00369374913344685;
0,00387086328631306;
0,00385439022517951;
0,00382217638074261;
0,00389892368593866;
0,00405092148855954;
0,00413490110070657;
0,00404633950821199;
0,00382825894290415;
0,00363893178542817;
0,00360246170451015;
0,00367234923614393;
0,0036341245817469;
0,00326006167723541;
0,00249990922803307;
0,00155404294326731;
0,000762675739193764;
0,000388003811184311;
0,000450401111014208;
0,000737632240785077;
0,000972001187059277;
0,00100193917872345;
0,000874688891018838;
0,000749179101784705;
0,00073659750271272;
0,000806333442704292;
0,000829872677076244;
0,000713417151767174;
0,000494966272509484;
0,000315304173832979;
0,000284540389808773;
0,000360510422406206;
0,000351364558497482;
5,364716030029E-5;
-0,000577820031259454;
-0,0106985014733272;
-0,0246356336829669;
-0,0186406109471665;
-0,0115668715542445;
-0,013962528386382;
-0,00851958741312826;
-0,00700464344028843;
-0,00596367117412998;
-0,00222689486999776;
-0,00232056564299512;
7,63310013326796E-5;
0,00101326213942318;
0,00184162065349375;
0,00351226713313408;
0,00380502570547604;
0,00486456469762705;
0,00513484488239838;
0,00548505692431667;
0,00614902026924963;
0,00663286482296894;
0,00747847654440807;
0,00791687484682304;
0,00806835779560396;
0,00788036257585569;
0,0073801735004729;
0,00696396051205889;
0,00656658081881491;
0,00627373026324217;
0,00594538485885878;
0,00548393472946879;
0,00497086722393536;
0,00444564059205168;
0,00402016108631986;
0,00365506489319041;
0,00325140185331581;
0,00274826571491658;
0,00216166644750644;
0,00164676828739556;
0,0013468883010876;
0,00129947341675197;
0,00138226915229134;
0,00137257346760587;
0,00110645743369882;
0,000568956647963042;
-9,96281217831124E-5;
-0,000715561039899769;
-0,00117913330237431;
-0,00151811975221511;
-0,00183681188979871;
-0,0022073605713561;
-0,00260892778676794;
-0,00295617290799897;
-0,00318563148383551;
-0,00332230523194952;
-0,0034596907696083;
-0,00367165932437598;
-0,00393048877375372;
-0,00410739465978644;
-0,00406527696588361;
-0,00377307590491697;
-0,00335093023601276;
-0,00300420157899671;
-0,00289209792883639;
-0,00302810646528596;
-0,00328442365793271;
-0,00349283372175046;
-0,00356125440189608;
-0,00351868020924234;
-0,00346270672891129;
-0,00346215151137522;
-0,00349906434244246;
-0,00349512340371133;
-0,00339303065615671;
-0,00321667669789143;
-0,00305373504205956;
-0,00297331817105638;
-0,00295024545603142;
-0,00286597871653346;
-0,00259410449854726;
-0,00210646344006027;
-0,00151447705321134;
-0,00100806717809543;
-0,000734291105860069;
-0,000705393341029342;
-0,000803233881237529;
-0,000872437157482694;
-0,000827930613845805;
-0,000696262618314403;
-0,000567067585350618;
-0,000503351530545323;
-0,000488133943133145;
-0,000448875324671818;
-0,000332419557471708;
-0,000160268884490044;
-1,24905621530899E-5;
4,80168573312773E-5;
4,50244345419942E-5;
8,79799267351141E-5;
0,000293446857326623;
0,000687753068195168;
0,00116924011141485;
0,00156442572454764;
0,00173928660516406;
0,00168339418442058;
0,0015056749696551;
0,00134900422512751;
0,00129179690046145;
0,00131032540394271;
0,00132322206693658;
0,00127351687865993;
0,0011773240836396;
0,00110143555473559;
0,00109486541977003;
0,0011384606273977;
0,00115967310674552;
0,00110165795376776;
0,000986564326068132;
0,000914513957776476;
0,000991972775249709;
0,0012431580161921;
0,00157582126419761;
0,00183248205167712;
0,00189166342655386;
0,00174427806661463;
0,00148961702818346;
0,00125766474239347;
0,00111975740056714;
0,0010544871053683;
0,000988184042047136;
0,000869343538548319;
0,000712702118438958;
0,000578851378649386;
0,000512205011807659;
0,000495427650061478;
0,000462886910321512;
0,000363199093505199;
0,000216410565342392;
0,000112971878447799;
0,000148951103208432;
0,00034605288295511;
0,000620850890144792;
0,000831152077256212;
0,000867358744034222;
0,000721267446134852;
0,000482312664983593;
0,000267472231104686;
0,000140807849635591;
8,28617682898639E-5;
2,71857413012798E-5;
-7,26791812269108E-5;
-0,000203621355593722;
-0,000311356224758902;
-0,000356185586731701;
-0,000353877895750848;
-0,00036351773732579;
-0,000431349970031806;
-0,000539537655162711;
-0,00060717427820583;
-0,000548405540106233;
-0,000344046819590516;
-6,90223368966502E-5;
0,000149249156797116;
0,000212629704086343;
0,000113717441964491;
-6,76385687215913E-5;
-0,000227063623117856;
-0,000307519290368161;
-0,000326543809392982;
-0,00034356354473176;
-0,000400116881545899;
-0,000484607089743209;
-0,000548768425641561;
-0,000557367702725446;
-0,000524568667052736;
-0,000503048870487376;
-0,000534005676463295;
-0,0006016260767852;
-0,000634071351624108;
-0,000555179045414617;
-0,000348045785511775;
-7,92870033951885E-5;
0,000137996449381757;
0,000216785403373401;
0,000150563413758211;
1,01115153757378E-5;
-0,000112139900068764;
-0,000165737837422098;
-0,000166240599357927;
-0,000166219060383671;
-0,000202375973483645;
-0,000264435982744064;
-0,00030975580117628;
-0,000307236320530949;
-0,000269382164254878;
-0,000242638401114812;
-0,000263278080390504;
-0,000317310961205477;
-0,000341429498500936;
-0,000268588711622211;
-8,39450477651945E-5;
0,000153893800587563;
0,00034553012385929;
0,000414585531041018;
0,000355448289585461;
0,000230351035717483;
0,000120452942665628;
7,00263090603214E-5;
6,54528091911843E-5;
6,07127076983941E-5;
2,37284601129032E-5;
-3,64375506878474E-5;
-8,24273259750292E-5;
-8,70177326906925E-5;
-6,1113546034606E-5;
-4,52458264579797E-5;
-7,10208184988472E-5;
-0,00012616040491034;
-0,000155400713128247;
-0,00010028744355213;
5,20922878972035E-5;
0,000250685563027771;
0,000409001477513273;
0,000460666734747952;
0,000400897394496072;
0,000283857546063836;
0,000180083967360813;
0,000128020292127114;
0,000115852606787984;
0,00010369142974762;
6,37729092404908E-5;
3,98905201214517E-6;
-4,32917981171384E-5;
-5,45107273671682E-5;
-3,91027162226554E-5;
-3,20908416991461E-5;
-6,07480370779396E-5;
-0,000114438121185354;
-0,000145460805931846;
-0,000103428820970076;
2,27375768128566E-5;
0,000189016873036127;
0,000320940770808359;
0,00036143726422348;
0,000306450315464742;
0,000202573156698595;
0,000110398680468625;
6,29050812305577E-5;
4,99303350331977E-5;
3,72643515868042E-5;
1,12694651411294E-6;
-5,1711862798353E-5;
-9,35556137901625E-5;
-0,000104279009741969;
-9,19747334667433E-5;
-8,65723877832401E-5;
-0,000111346086440024;
-0,000157209823158256;
-0,000183504886344441;
-0,00014734406176797;
-3,93592958618868E-5;
0,000102934507570024;
0,000216194549457966;
0,000251945178327501;
0,000206784144911758;
0,000120280614054329;
4,38163489797654E-5;
5,30842793465138E-6;
-3,88314835365793E-6;
-1,27262695711043E-5;
-4,13283736795069E-5;
-8,39614437992615E-5;
-0,000117244077281455;
-0,000124218796794499;
-0,000111739066610496;
-0,000105038528703548;
-0,000123707181542214;
-0,000160087122031541;
-0,000180000232616719;
-0,000147454911329835;
-5,46476818092048E-5;
6,69001046070452E-5;
0,000164079577540693;
0,000196317181652862;
0,000160812622347189;
9,06890128056071E-5;
2,88810624925982E-5;
-1,32732493111871E-6;
-7,16946541884172E-6;
-1,2798134667976E-5;
-3,49473831645848E-5;
-6,88359795250147E-5;
-9,50243305094607E-5;
-9,9443365055857E-5;
-8,78013425611861E-5;
-8,10271574291445E-5;
-9,53346611915245E-5;
-0,000124363358010765;
-0,000139845648179645;
-0,000112074281443008;
-3,46600252804673E-5;
6,63571102574669E-5;
0,000147211435056586;
0,000174539321977986;
0,000146093041777632;
8,91285216723538E-5;
3,88959037267823E-5;
1,44708961393824E-5;
9,9090152721706E-6;
5,44402918357352E-6;
-1,25859119505367E-5;
-4,02552655281314E-5;
-6,16997113004013E-5;
-6,54664260136574E-5;
-5,62176700416869E-5;
-5,09715325662132E-5;
-6,2876755154734E-5;
-8,67468096105189E-5;
-9,96671640149522E-5;
-7,76181177724102E-5;
-1,54844881484263E-5;
6,56608581030769E-5;
0,000130508716708186;
0,000152216021643733;
0,000129032630308156;
8,2910846386936E-5;
4,21594312051304E-5;
2,2056002955325E-5;
1,78210573547354E-5;
1,36463137295364E-5;
-1,36063352427772E-6;
-2,404741312993E-5;
-4,17725370067154E-5;
-4,54398573104334E-5;
-3,87697800995087E-5;
-3,5261619735159E-5;
-4,53091164579013E-5;
-6,47846461346341E-5;
-7,55879004259433E-5;
-5,88101220676516E-5;
-1,0479541962067E-5;
5,27910574267597E-5;
0,000103280161488456;
0,000119990187493089;
0,000101612006830603;
6,53395104139764E-5;
3,32593325783151E-5;
1,72460057005876E-5;
1,3561459372376E-5;
9,9366583318749E-6;
-2,04718785378892E-6;
-1,99326703022322E-5;
-3,39613992412447E-5;
-3,71442985435411E-5;
-3,23622438806547E-5;
-2,99760491231557E-5;
-3,79247933611328E-5;
-5,30288039508303E-5;
-6,14819268555991E-5;
-4,89303658876455E-5;
-1,24203563231724E-5;
3,54062372260705E-5;
7,35787909732309E-5;
8,62961680448403E-5;
7,26373887854116E-5;
4,55640683893081E-5;
2,16336256576878E-5;
9,69818467069466E-6;
6,94350598253913E-6;
4,23918510898169E-6;
-4,64209936515643E-6;
-1,78610284656361E-5;
-2,8214838042782E-5;
-3,05807103141648E-5;
-2,70963499849099E-5;
-2,53462183756368E-5;
-3,10999480854301E-5;
-4,20175140114117E-5;
-4,80878079985106E-5;
-3,89791624425835E-5;
-1,26346440360261E-5;
2,1809453821015E-5;
4,93370442341241E-5;
5,87269171954071E-5;
4,93983623528632E-5;
3,05842490159085E-5;
1,39745037699777E-5;
5,76277213909648E-6;
3,94833376258011E-6;
2,16017211386069E-6;
-3,90391960247022E-6;
-1,29479151105191E-5;
-2,00121886024985E-5;
-2,16103158419352E-5;
-1,92269972062632E-5;
-1,80124200751786E-5;
-2,18356828770124E-5;
-2,90924313392796E-5;
-3,30928904073052E-5;
-2,70224781486498E-5;
-9,60593763569634E-6;
1,3086500073696E-5;
3,12413338154966E-5;
3,76358406829341E-5;
3,19854438710369E-5;
2,02704403800027E-5;
9,93814929066409E-6;
4,86723414557259E-6;
3,76670678640159E-6;
2,66786452773818E-6;
-1,05689620579623E-6;
-6,58413258760148E-6;
-1,09031782656246E-5;
-1,19478468588442E-5;
-1,06347530075676E-5;
-1,00013708291599E-5;
-1,22688590197329E-5;
-1,64709173605154E-5;
-1,87946748002306E-5;
-1,54692479099645E-5;
-5,89369820238453E-6;
6,51522799266748E-6;
1,644166430633E-5;
2,01166142926617E-5;
1,75102242590384E-5;
1,17956168122852E-5;
6,76160278662711E-6;
4,29245433454444E-6;
3,70929838301902E-6;
3,11165127508581E-6;
1,31215538951696E-6;
-1,27274236255109E-6;
-3,30734720575234E-6;
-3,94472536966008E-6;
-3,61320190187228E-6;
-3,53775090415869E-6;
-4,52732537027567E-6;
-6,16317217039096E-6;
-7,09617088480332E-6;
-6,15936507342853E-6;
-3,32702975808985E-6;
2,53324879208116E-7;
3,10787560238509E-6;
4,41503157897472E-6;
4,36098216970222E-6;
3,72478427118942E-6;
3,17823297875473E-6;
2,90802552768543E-6;
2,75645884340422E-6;
2,58132591052748E-6;
2,41818639211502E-6;
2,33698860688697E-6;
2,25174306659822E-6;
1,97572948160686E-6;
1,49477915981663E-6;
1,11866416972964E-6;
1,23267378771602E-6;
1,79149678114776E-6;
2,0618175917036E-6;
1,01226695265399E-6;
-1,81555326038605E-6;
-5,65452970345155E-6;
-8,74091479316521E-6;
-9,41543228994128E-6;
-7,3113849155058E-6;
-3,6633805168906E-6;
-4,1831991513469E-7;
1,18590928528663E-6;
1,42907651510911E-6;
1,64235518760167E-6;
2,88462619862401E-6;
4,93501654986504E-6;
6,51847259443319E-6;
6,5849726337456E-6;
5,46651571777172E-6;
4,75297342698622E-6;
5,8242220127843E-6;
8,24757198007999E-6;
9,55666385202102E-6;
6,89322999242594E-6;
-6,01889120510293E-7;
-1,05713969266153E-5;
-1,8566687318479E-5;
-2,08739214448457E-5;
-1,69781443946511E-5;
-9,7799505951143E-6;
-3,38978265742714E-6;
-2,20869091883375E-7;
3,67770895490541E-7;
9,21032322726506E-7;
3,33935606169779E-6;
7,16198534719749E-6;
1,01368564808714E-5;
1,05058693706754E-5;
8,88539369374291E-6;
7,91384361464391E-6;
9,78427978776424E-6;
1,37465344238035E-5;
1,59188710158701E-5;
1,1953592610252E-5;
6,6649072995004E-7;
-1,42894122301686E-5;
-2,62820742944893E-5;
-2,99296049041787E-5;
-2,45978813401247E-5;
-1,45382990377429E-5;
-5,612468342815E-6;
-1,18322966580098E-6;
-3,17363596174521E-7;
5,0890362112663E-7;
3,87329682847337E-6;
9,12133501952147E-6;
1,32156379190415E-5;
1,38302582418284E-5;
1,18101510230201E-5;
1,06333044364638E-5;
1,31423636826078E-5;
1,83328058052887E-5;
2,11939340393003E-5;
1,61927190468405E-5;
1,88804967005937E-6;
-1,70365203184673E-5;
-3,22168264290229E-5;
-3,69506530844729E-5;
-3,05108609871197E-5;
-1,82163183055181E-5;
-7,30930507293213E-6;
-1,89956644855954E-6;
-8,23595329246053E-7;
2,1050358108248E-7;
4,3104082748164E-6;
1,0669315792361E-5;
1,56363311715075E-5;
1,64432593231508E-5;
1,4113625758384E-5;
1,27778972816253E-5;
1,57819089014898E-5;
2,19232467478241E-5;
2,53183236484962E-5;
1,95204986391602E-5;
2,89256028963733E-6;
-1,90882823783497E-5;
-3,67286430045221E-5;
-4,23162635480624E-5;
-3,50543502751946E-5;
-2,10767391543797E-5;
-8,67630846983212E-6;
-2,52923214333961E-6;
-1,2969031115714E-6;
-1,06851685212646E-7;
4,54750602210115E-6;
1,1743864703815E-5;
1,7370476616607E-5;
1,83284258490661E-5;
1,57753589798118E-5;
1,43281367384595E-5;
1,77059076196846E-5;
2,45584519838148E-5;
2,83562637577641E-5;
2,19798051512974E-5;
3,64956205128418E-6;
-2,05733346035176E-5;
-4,00227940660026E-5;
-4,62509657720383E-5;
-3,84120917222004E-5;
-2,32319101322707E-5;
-9,76244225845386E-6;
-3,08699282677472E-6;
-1,74055522300664E-6;
-4,35476050132306E-7;
4,61825407123594E-6;
1,24152882108062E-5;
1,85174852915368E-5;
1,95933780447626E-5;
1,68956052460674E-5;
1,53813608452473E-5;
1,90289585186114E-5;
2,63844063695338E-5;
3,04716403734714E-5;
2,37095363671508E-5;
4,22347319204679E-6;
-2,15254360481849E-5;
-4,22109209703004E-5;
-4,88900068343837E-5;
-4,06861213680945E-5;
-2,47217022787662E-5;
-1,05529628466935E-5;
-3,53106966588887E-6;
-2,10715186806451E-6;
-7,22793783498412E-7;
4,59465460884735E-6;
1,27851766684805E-5;
1,9201527030022E-5;
2,03652654917204E-5;
1,75899393683832E-5;
1,60458915258746E-5;
1,98712857662343E-5;
2,75467051193512E-5;
3,18228877886795E-5;
2,48407834570599E-5;
4,67166647007189E-6;
-2,19830563899796E-5;
-4,34080940482094E-5;
-5,03738991292682E-5;
-4,1988851962332E-5;
-2,56030340808157E-5;
-1,10561605799458E-5;
-3,84674907234778E-6;
-2,37882638624444E-6;
-9,48005833854814E-7;
4,51399767222708E-6;
1,2917022798026E-5;
1,95059337804795E-5;
2,0729124374579E-5;
1,79316765784811E-5;
1,6387545628182E-5;
2,03092647494239E-5;
2,81450113527023E-5;
3,25214331698241E-5;
2,54593943506961E-5;
5,01128767790116E-6;
-2,20182474034302E-5;
-4,37575352327975E-5;
-5,08692789020943E-5;
-4,24603638927266E-5;
-2,59638143025229E-5;
-1,13140205843362E-5;
-4,05380320863918E-6;
-2,57149325271818E-6;
-1,12327386961614E-6;
4,38053960402972E-6;
1,28405808940583E-5;
1,9480123248317E-5;
2,07372681864103E-5;
1,79636215534783E-5;
1,64435603620279E-5;
2,03913227899842E-5;
2,82507611780734E-5;
3,26510605852496E-5;
2,56269525091375E-5;
5,24182087705827E-6;
-2,17126156202105E-5;
-4,3405313294011E-5;
-5,05425905432276E-5;
-4,22413474501914E-5;
-2,58953248499365E-5;
-1,13741889768037E-5;
-4,17811871505383E-6;
-2,70620975228283E-6;
-1,26496201236068E-6;
4,19424278852256E-6;
1,25804768562988E-5;
1,91679728246727E-5;
2,04373546490551E-5;
1,772575427504E-5;
1,62498072865568E-5;
2,01645733578897E-5;
2,79331172366671E-5;
3,22931375647202E-5;
2,54052509185816E-5;
5,36879716456219E-6;
-2,11343966872319E-5;
-4,24782701123477E-5;
-4,9538944135788E-5;
-4,14529715901194E-5;
-2,54731706202493E-5;
-1,12720069289022E-5;
-4,2348192073871E-6;
-2,79341415906309E-6;
-1,37897769659481E-6;
3,96432652445492E-6;
1,21686278392383E-5;
1,86191211160567E-5;
1,98825832408575E-5;
1,72643357524695E-5;
1,58488282427326E-5;
1,96817973375378E-5;
2,72649086902541E-5;
3,15315461127904E-5;
2,48602462312123E-5;
5,40679324151107E-6;
-2,03363826081188E-5;
-4,10828317345079E-5;
-4,79817607819271E-5;
-4,01973056583969E-5;
-2,47584207678087E-5;
-1,10323494061102E-5;
-4,2307730802233E-6;
-2,8360548678621E-6;
-1,46450067567425E-6;
3,70497925219531E-6;
1,16394609248118E-5;
1,78837310824315E-5;
1,91260237444745E-5;
1,66258376192773E-5;
1,52834048809786E-5;
1,89947099003069E-5;
2,63156712685743E-5;
3,04455113255091E-5;
2,4054660142014E-5;
5,37180348293641E-6;
-1,93637671775848E-5;
-3,93130139708467E-5;
-4,59808429878397E-5;
-3,85653437655566E-5;
-2,38055136182027E-5;
-1,06773980949213E-5;
-4,17225455862714E-6;
-2,83715461511823E-6;
-1,52141459956995E-6;
3,42811989872202E-6;
1,10228916829561E-5;
1,70056820065157E-5;
1,82140209773869E-5;
1,5850547134022E-5;
1,4590385235786E-5;
1,81480671181727E-5;
2,51460485170341E-5;
2,91042917167209E-5;
2,30429055691116E-5;
5,27630661340413E-6;
-1,82589739382148E-5;
-3,72550942552216E-5;
-4,36367643743957E-5;
-3,6641010684607E-5;
-2,26658426873557E-5;
-1,02298048024469E-5;
-4,06774095986563E-6;
-2,80229333181209E-6;
-1,55248485745278E-6;
3,14153146116521E-6;
1,03427983559107E-5;
1,60213762768605E-5;
1,71852659310267E-5;
1,49718649961392E-5;
1,38002165030534E-5;
1,71794578876176E-5;
2,38078775078949E-5;
2,75675156201099E-5;
2,1871551512423E-5;
5,12973749782746E-6;
-1,70612411898421E-5;
-3,49872058579917E-5;
-4,10403650143775E-5;
-3,45004116053945E-5;
-2,13866716720275E-5;
-9,71133623614471E-6;
-3,92637236981868E-6;
-2,73794443001913E-6;
-1,56158759148178E-6;
2,85078452664378E-6;
9,61910125289177E-6;
1,49619369978691E-5;
1,60730503818436E-5;
1,40185557237791E-5;
1,29391986557885E-5;
1,61216189200963E-5;
2,23465930981317E-5;
2,58876273639323E-5;
2,05816866518281E-5;
4,94061452673361E-6;
-1,58048160899468E-5;
-3,25778020794071E-5;
-3,82713011451476E-5;
-3,22103021961223E-5;
-2,00094616775281E-5;
-9,14106136289304E-6;
-3,75610360422613E-6;
-2,64968322993173E-6;
-1,55196967163162E-6;
2,56096494842635E-6;
8,86951663398683E-6;
1,38549600486189E-5;
1,49069536947547E-5;
1,30163258989157E-5;
1,20309512197332E-5;
1,50038538318794E-5;
2,08026571621486E-5;
2,41112793888347E-5;
1,92101200928418E-5;
4,71739423720823E-6;
-1,45185039187336E-5;
-3,00855310278242E-5;
-3,53980749955619E-5;
-2,98280823915256E-5;
-1,85697139745681E-5;
-8,5350886555886E-6;
-3,56342315838074E-6;
-2,54193653523822E-6;
-1,5260437057179E-6;
2,27687614227939E-6;
8,10979808951467E-6;
1,27247773954681E-5;
1,37130473818877E-5;
1,19879204475968E-5;
1,10964459736398E-5;
1,38520696204825E-5;
1,92116309218986E-5;
2,22794086169029E-5;
1,77893289795274E-5;
4,46810965128219E-6;
-1,32264194761423E-5;
-2,75603054628633E-5;
-3,24792131644114E-5;
-2,74028563142367E-5;
-1,70978226474454E-5;
-7,90722598261024E-6;
-3,3539194279607E-6;
-2,41855863591153E-6;
-1,48595762991579E-6;
2,00254950478261E-6;
7,35335946005238E-6;
1,15921565570206E-5;
1,25136159374999E-5;
1,09528132843151E-5;
1,01536570429282E-5;
1,26884765074565E-5;
1,76039978368581E-5;
2,04271138409048E-5;
1,63472400638737E-5;
4,19988704636339E-6;
-1,19488396353265E-5;
-2,50444270429862E-5;
-2,95644489993766E-5;
-2,49764751262541E-5;
-1,56198458507013E-5;
-7,269522047791E-6;
-3,1327066010184E-6;
-2,28319681437829E-6;
-1,433914747674E-6;
1,74101067902322E-6;
6,61117275492063E-6;
1,0474316150347E-5;
1,13272030681143E-5;
9,92721680432376E-6;
9,21757907360415E-6;
1,15316792087045E-5;
1,60053703532141E-5;
1,85839525403546E-5;
1,49074317629066E-5;
3,91885773980844E-6;
-1,07026382470566E-5;
-2,25732977792221E-5;
-2,66955065830709E-5;
-2,25841653517258E-5;
-1,41578802469718E-5;
-6,63240179117586E-6;
-2,90443158866061E-6;
-2,13927869510657E-6;
-1,37212669256563E-6;
1,49442378550116E-6;
5,89205157940237E-6;
9,38531171648748E-6;
1,01690117249966E-5;
8,92445169246887E-6;
8,30056947037265E-6;
1,03970743183957E-5;
1,44370055969091E-5;
1,677450450855E-5;
1,34896013034769E-5;
3,63035007900107E-6;
-9,50147472075818E-6;
-2,0175911029644E-5;
-2,39066836051909E-5;
-2,02549739691997E-5;
-1,27302556721091E-5;
-6,00465900246799E-6;
-2,67315704616917E-6;
-1,98985834582532E-6;
-1,30264299064337E-6;
1,26433410891958E-6;
5,20299416049119E-6;
8,3364584780223E-6;
9,05135129245802E-6;
7,955349220269E-6;
7,41272622285548E-6;
9,29727690404581E-6;
1,29163249534068E-5;
1,5018943641933E-5;
1,21100245218821E-5;
3,33904282952351E-6;
-8,35603515674316E-6;
-1,78753919188269E-5;
-2,12254728134125E-5;
-1,80122681274038E-5;
-1,13518037150165E-5;
-5,39351372324162E-6;
-2,44232690589871E-6;
-1,8375743498673E-6;
-1,22729339998767E-6;
1,05179807495538E-6;
4,54943896163144E-6;
7,33667208567516E-6;
7,98396823381558E-6;
7,02852875241725E-6;
6,56213004122615E-6;
8,24240262137891E-6;
1,1457297348721E-5;
1,33334709362179E-5;
1,0781877854653E-5;
3,04900501072016E-6;
-7,27435111199662E-6;
-1,56896092839612E-5;
-1,86732746964051E-5;
-1,58743344787063E-5;
-1,00342251675715E-5;
-4,80477304459087E-6;
-2,21483135846723E-6;
-1,68469823673016E-6;
-1,1477151172554E-6;
8,5742669875179E-7;
3,93540417095577E-6;
6,3926956493141E-6;
6,9743018846685E-6;
6,15060704338153E-6;
5,75502635643848E-6;
7,24030382852834E-6;
1,0070769414917E-5;
1,17306945445094E-5;
9,51552089016768E-6;
2,76369950582044E-6;
-6,26215612774901E-6;
-1,36318186523063E-5;
-1,62661260033903E-5;
-1,38549730599427E-5;
-8,78646016652363E-6;
-4,24301903029644E-6;
-1,99309189285419E-6;
-1,53318673650907E-6;
-1,06538883297099E-6;
6,81416636440441E-7;
3,36364125930022E-6;
5,5093335947042E-6;
6,02771328294383E-6;
5,32640064687156E-6;
4,99601071769503E-6;
6,29679465883826E-6;
8,76479503387228E-6;
1,02200099414605E-5;
8,31878120809643E-6;
2,4860118566071E-6;
-5,32320107877691E-6;
-1,17112390314263E-5;
-1,40153458500306E-5;
-1,19640385175171E-5;
-7,61502276396418E-6;
-3,71174522934741E-6;
-1,77910080914366E-6;
-1,38471266957996E-6;
-9,81650504713544E-7;
5,23616957268298E-7;
2,83579238142764E-6;
4,68969009670734E-6;
5,1477523201627E-6;
4,55914299205128E-6;
4,28822302497339E-6;
5,4158959157559E-6;
7,54496346866398E-6;
8,80798013937797E-6;
7,19724872379937E-6;
2,21829681901731E-6;
-4,459520297145E-6;
-9,93356934395993E-6;
-1,19281419466631E-5;
-1,02079440931197E-5;
-6,52429302986754E-6;
-3,21347129919837E-6;
-1,57445827857363E-6;
-1,24068153861558E-6;
-8,97687250843592E-7;
3,83592233397577E-7;
2,35255899764548E-6;
3,93541158772963E-6;
4,33640603532569E-6;
3,85071074477631E-6;
3,63355499104566E-6;
4,60008344108327E-6;
6,41473581213878E-6;
7,49871363879097E-6;
6,15456880338722E-6;
1,96244371237793E-6;
-3,67167230709699E-6;
-8,30148326161424E-6;
-1,00081670527216E-5;
-8,59010562116112E-6;
-5,51679064375296E-6;
-2,74986426346747E-6;
-1,38040744773031E-6;
-1,1022387438241E-6;
-8,14526686244848E-7;
2,6068834148641E-7;
1,91385582296156E-6;
3,2469119233058E-6;
3,59433653908188E-6;
3,20182252448538E-6;
3,03282346192585E-6;
3,85049917599193E-6;
5,3757381943053E-6;
6,29420288262974E-6;
5,19270388817226E-6;
1,71991208178438E-6;
-2,9589823699401E-6;
-6,815071688862E-6;
-8,25604366606157E-6;
-7,11139054096755E-6;
-4,59343611283058E-6;
-2,32183703226486E-6;
-1,19785791379003E-6;
-9,70292403023048E-7;
-7,33049623617566E-7;
1,54079655378586E-7;
1,51893877206744E-6;
2,62356827381712E-6;
2,921080673327E-6;
2,61220952078431E-6;
2,48594135766238E-6;
3,16715932028333E-6;
4,42803811835525E-6;
5,19463705096304E-6;
4,31217643519821E-6;
1,49178966951376E-6;
-2,31974639798151E-6;
-5,47227009053453E-6;
-6,6698491985777E-6;
-5,77051458031712E-6;
-3,75380146532689E-6;
-1,92966823058855E-6;
-1,02743727407585E-6;
-8,45540418763519E-7;
-6,54004405122048E-7;
6,28094912290414E-8;
1,16653026196418E-6;
2,0638939507361E-6;
2,31524757953311E-6;
2,08079189721383E-6;
1,99205418712369E-6;
2,549122959866E-6;
3,57039062526135E-6;
4,19868989215185E-6;
3,51228419316357E-6;
1,27881646952734E-6;
-1,75144120064366E-6;
-4,26925266158577E-6;
-5,24556731372081E-6;
-4,56441453586784E-6;
-2,99633409244437E-6;
-1,57309732074497E-6;
-8,69524981461849E-7;
-7,2849340113435E-7;
-5,78008466147143E-7;
-1,41743739631534E-8;
8,54915272808618E-7;
1,56570460920837E-6;
1,77467862939792E-6;
1,6058107193659E-6;
1,54968387851816E-6;
1,99467045640141E-6;
2,80046692836438E-6;
3,30377513986E-6;
2,7913117382597E-6;
1,08143611985113E-6;
-1,25089023360072E-6;
-3,20076359471084E-6;
-3,97748036339077E-6;
-3,48858208980169E-6;
-2,31856149324449E-6;
-1,25140850560366E-6;
-7,24276243828012E-7;
-6,19491147342069E-7;
-5,05563811720747E-7;
-7,79836695177742E-8;
5,82049109609151E-7;
1,12626517391849E-6;
1,29661640627027E-6;
1,18497320620276E-6;
1,15684352151808E-6;
1,50144787552599E-6;
2,11506622345337E-6;
2,50629411574212E-6;
2,14671265512597E-6;
8,99828898392781E-7;
-8,14421578886498E-7;
-2,26043882757257E-6;
-2,85853681338201E-6;
-2,53735954017421E-6;
-1,71727372000633E-6;
-9,63522174408329E-7;
-5,91666741517576E-7;
-5,18728329167615E-7;
-4,37060025659143E-7;
-1,29764375322405E-7;
3,45636215461464E-7;
7,42420168679621E-7;
8,77835438888218E-7;
8,15575887765516E-7;
8,11159531980645E-7;
1,06660290876975E-6;
1,51029633343979E-6;
1,80184753822375E-6;
1,57528265653424E-6;
7,33950088124384E-7;
-4,38006872812927E-7;
-1,44107250507282E-6;
-1,88066355357295E-6;
-1,70421462412352E-6;
-1,18868850974456E-6;
-7,08056989955014E-7;
-4,71506491373267E-7;
-4,26265203464199E-7;
-3,72789312571448E-7;
-1,70667568737961E-7;
1,43212565331873E-7;
4,1071089343079E-7;
5,14773138394057E-7;
4,94603726236308E-7;
5,09958674294011E-7;
6,8691289875796E-7;
9,81750046651589E-7;
1,18542620082545E-6;
1,07330392775943E-6;
5,83565002236813E-7;
-1,17377008488241E-7;
-7,34867119490874E-7;
-1,03505591373873E-6;
-9,81971058724898E-7;
-7,28597182888815E-7;
-4,83403863026766E-7;
-3,63476571765516E-7;
-3,42051901134236E-7;
-3,12951642822045E-7;
-2,01832815479707E-7;
-2,77888180585646E-8;
1,27477343229822E-7;
2,03626960095965E-7;
2,18828188622109E-7;
2,5036219116609E-7;
3,58886189926887E-7;
5,24642427305245E-7;
6,51577151210641E-7;
6,36681394653901E-7;
4,48275545005815E-7;
1,51870631968463E-7;
-1,3364298891449E-7;
-3,12424962421931E-7;
-3,63018542779519E-7;
-3,324949601132E-7;
-2,87782604648211E-7;
-2,67145052028896E-7;
-2,65941170811105E-7;
-2,57666835113431E-7;
-2,24370441104096E-7;
-1,69991418018907E-7;
-1,11058865115571E-7;
-5,95381655543988E-8;
-1,51079710549583E-8;
2,93594100014654E-8;
7,88560418013749E-8;
1,33945837222477E-7;
1,94563198362109E-7;
2,61067220970527E-7;
3,27555387572814E-7;
3,74183631777781E-7;
3,70981976679684E-7;
2,96795445321155E-7;
1,60505692447944E-7;
4,30781827314387E-9;
-1,19292228216103E-7;
-1,81996810596477E-7;
-1,97706746001475E-7;
-2,06981367089438E-7;
-2,39346330560213E-7;
-2,86013809133632E-7;
-3,08714576406432E-7;
-2,78718627173591E-7;
-2,10624712759804E-7;
-1,56131340529092E-7;
-1,56937985055189E-7;
-1,95503874422921E-7;
-1,91523148951437E-7;
-5,80490535964388E-8;
2,20766624143399E-7;
5,53982430231278E-7;
7,87433451305568E-7;
8,02252172939508E-7;
5,96563342239537E-7;
2,86591582912818E-7;
2,40418819904767E-8;
-1,07446796263785E-7;
-1,37056264814832E-7;
-1,60880244620122E-7;
-2,47774979407214E-7;
-3,78441278309757E-7;
-4,69285031350767E-7;
-4,57902294288628E-7;
-3,71144302066006E-7;
-3,09202642661466E-7;
-3,52281766401878E-7;
-4,68907151028198E-7;
-5,12642397906099E-7;
-3,25245252664276E-7;
1,27195460655369E-7;
6,95593308871544E-7;
1,12404810603834E-6;
1,21353287838801E-6;
9,5308282085423E-7;
5,19137916664742E-7;
1,44227661588589E-7;
-4,2862574228106E-8;
-8,3645347798264E-8;
-1,19297020208277E-7;
-2,50610070980631E-7;
-4,49783488631708E-7;
-5,96489094696896E-7;
-6,01010777162214E-7;
-5,00039076468143E-7;
-4,32910469301638E-7;
-5,10926631390792E-7;
-6,91422669629414E-7;
-7,74711679607843E-7;
-5,45094293682884E-7;
4,60611517302513E-8;
8,03207277817202E-7;
1,38897049480615E-6;
1,54002518261387E-6;
1,23785253721944E-6;
7,06667284674551E-7;
2,43276797088447E-7;
1,24249675788502E-8;
-3,70848521404581E-8;
-8,21127700825995E-8;
-2,48737865565307E-7;
-5,02456114296941E-7;
-6,93929897196743E-7;
-7,11852501802957E-7;
-6,00593524221805E-7;
-5,30240948170742E-7;
-6,36542867034121E-7;
-8,68104879392478E-7;
-9,83533460404755E-7;
-7,22096489647953E-7;
-2,34583803947195E-8;
8,80831450202148E-7;
1,59006307322512E-6;
1,7908197852496E-6;
1,45842941924782E-6;
8,5378088995337E-7;
3,23175767493696E-7;
5,9104326729141E-8;
3,03840825392544E-9;
-4,91756016100539E-8;
-2,42971529023375E-7;
-5,38757135910002E-7;
-7,6505899907843E-7;
-7,94083286430232E-7;
-6,75968395467514E-7;
-6,04076928724767E-7;
-7,32679096120614E-7;
-1,00383991730567E-6;
-1,14473195945862E-6;
-8,606350059051E-7;
-8,22088621450233E-8;
9,32260103297638E-7;
1,73483260297685E-6;
1,97462467280985E-6;
1,62206895303387E-6;
9,64910369664085E-7;
3,85859285307677E-7;
9,78701392573648E-8;
3,7163197612033E-8;
-2,02983263344E-8;
-2,34060586709614E-7;
-5,60850454710519E-7;
-8,13147100295231E-7;
-8,51183709686037E-7;
-7,29173920703413E-7;
-6,57167774039272E-7;
-8,02731816223644E-7;
-1,10331069093047E-6;
-1,26369664449565E-6;
-9,64926836041916E-7;
-1,31049077915303E-7;
9,61058198805941E-7;
1,83038928596313E-6;
2,09969982919434E-6;
1,73566627636772E-6;
1,04428667497273E-6;
4,33193350521979E-7;
1,29419153924551E-7;
6,57389755320156E-8;
4,72585077785672E-9;
-2,22675639315207E-7;
-5,70755374562842E-7;
-8,41271688347954E-7;
-8,86430900340805E-7;
-7,63053128055799E-7;
-6,92121186651752E-7;
-8,49922533861413E-7;
-1,17095866637553E-6;
-1,34554922335687E-6;
-1,03899438390483E-6;
-1,7083501829162E-7;
9,70538944726687E-7;
1,88339302422547E-6;
2,17381098742052E-6;
1,8057210174687E-6;
1,09591107267294E-6;
4,66963562522246E-7;
1,54433487244659E-7;
8,92187971113605E-8;
2,61295075329616E-8;
-2,09417914364385E-7;
-5,70345392692335E-7;
-8,52300210062572E-7;
-9,02887563743445E-7;
-7,80268312915726E-7;
-7,11377970064698E-7;
-8,77275467756544E-7;
-1,21096380963915E-6;
-1,39511211674589E-6;
-1,08664038436246E-6;
-2,02413183538791E-7;
9,63759176897966E-7;
1,90004243371903E-6;
2,20420139102937E-6;
1,83830156314244E-6;
1,12352894194816E-6;
4,88854229761572E-7;
1,7357837444276E-7;
1,08055714183937E-7;
4,41544058356477E-8;
-1,94819664412038E-7;
-5,6133588003078E-7;
-8,48877519076634E-7;
-9,03386750646194E-7;
-7,83287597751839E-7;
-7,17213038562137E-7;
-8,87613906304614E-7;
-1,22722399000175E-6;
-1,41688807044662E-6;
-1,11142748708772E-6;
-2,26607680397362E-7;
9,43516822170664E-7;
1,88605015670044E-6;
2,19756010259728E-6;
1,83903456555854E-6;
1,13063187263228E-6;
5,00453082802061E-7;
1,87497508177594E-7;
1,22694187537185E-7;
5,90502613381547E-8;
-1,793472438899E-7;
-5,45289526449428E-7;
-8,33432177126247E-7;
-8,90536570013609E-7;
-7,74385267690719E-7;
-7,11723010585244E-7;
-8,83543659458853E-7;
-1,22334355353168E-6;
-1,4150458328047E-6;
-1,11666648067294E-6;
-2,4421346924113E-7;
9,12346267699043E-7;
1,84664461706582E-6;
2,16003034434392E-6;
1,81308408533589E-6;
1,12042970384669E-6;
5,032342326656E-7;
1,96801741575985E-7;
1,33567067050371E-7;
7,1072340071537E-8;
-1,63404203132372E-7;
-5,23615751263418E-7;
-8,08168379293476E-7;
-8,66710735698248E-7;
-7,55636036708953E-7;
-6,96828241743979E-7;
-8,67458463314785E-7;
-1,20263423285146E-6;
-1,39342069701261E-6;
-1,10541675593951E-6;
-2,55994146317773E-7;
8,72529345655484E-7;
1,78657027643989E-6;
2,09720123612184E-6;
1,76516916033205E-6;
1,09586962768339E-6;
4,98563049010995E-7;
2,02072746468126E-7;
1,41092371881653E-7;
8,04768014955774E-8;
-1,47333656036868E-7;
-4,97577224506803E-7;
-7,75076394682443E-7;
-8,34056865567169E-7;
-7,28921391521665E-7;
-6,74273225285242E-7;
-8,41532386337796E-7;
-1,16810932218428E-6;
-1,35550730381903E-6;
-1,08047417413317E-6;
-2,62670999631682E-7;
8,26102621826697E-7;
1,71009634255448E-6;
2,01411220874692E-6;
1,69955077579705E-6;
1,05962151351711E-6;
4,87688806386014E-7;
2,03855314860972E-7;
1,45670500118864E-7;
8,7516558895931E-8;
-1,31426836709923E-7;
-4,68292655408134E-7;
-7,35932607983212E-7;
-7,94500954682445E-7;
-6,95931435198643E-7;
-6,45629761684068E-7;
-8,07735320172788E-7;
-1,12249832454806E-6;
-1,30447091898193E-6;
-1,04438071057138E-6;
-2,649265053172E-7;
7,74859184321451E-7;
1,62103536829082E-6;
1,91528173137981E-6;
1,62005657369199E-6;
1,01409393386441E-6;
4,71750277452221E-7;
2,02659537295809E-7;
1,47679168368285E-7;
9,24379493399231E-8;
-1,15919738327988E-7;
-4,36743614126717E-7;
-6,92312191149266E-7;
-7,49753331972791E-7;
-6,58170837135969E-7;
-6,12300320707603E-7;
-7,6782315979099E-7;
-1,06824053742665E-6;
-1,24314946226565E-6;
-9,99426628731376E-7;
-2,63394443429946E-7;
7,20375421042626E-7;
1,52275747843137E-6;
1,80471407249008E-6;
1,5300896688422E-6;
9,61434801904576E-7;
4,51774765349258E-7;
1,98954838383313E-7;
1,47473703405937E-7;
9,54829531640444E-8;
-1,01004323222324E-7;
-4,03784970689543E-7;
-6,45598145747011E-7;
-7,01320823961656E-7;
-6,16969765245243E-7;
-5,75531690260355E-7;
-7,23358644579841E-7;
-1,00750697984204E-6;
-1,17407385688653E-6;
-9,47662191569375E-7;
-2,58665646394967E-7;
6,64009347977475E-7;
1,41821735978116E-6;
1,68593523523826E-6;
1,43265366799331E-6;
9,03551854705608E-7;
4,28682102154602E-7;
1,93172284704978E-7;
1,45385364435011E-7;
9,68773513270907E-8;
-8,68328562788369E-8;
-3,70151388082229E-7;
-5,96991438218012E-7;
-6,50518702895188E-7;
-5,73490864829783E-7;
-5,36411209517129E-7;
-6,75720277109254E-7;
-9,4221357449445E-7;
-1,09947026978675E-6;
-8,90902069099475E-7;
-2,51281378638208E-7;
6,06925950360628E-7;
1,30997577492545E-6;
1,56201324830037E-6;
1,33036993546865E-6;
8,4211526293546E-7;
4,03290352090836E-7;
1,85706587774036E-7;
1,41720679513088E-7;
9,68392588195642E-8;
-7,35200583685723E-8;
-3,36465030306217E-7;
-5,47523019342784E-7;
-5,98479914298287E-7;
-5,28739452798786E-7;
-4,95889607890824E-7;
-6,2610198935968E-7;
-8,74026927608167E-7;
-1,02129154320031E-6;
-8,30741188228513E-7;
-2,41736986017633E-7;
5,50109712867116E-7;
1,20023058624587E-6;
1,43558894487702E-6;
1,22550435825762E-6;
7,78577229266927E-7;
3,76319428970903E-7;
1,76915900323987E-7;
1,36762564121988E-7;
9,55765422525367E-8;
-6,11422422387325E-8;
-3,03247524641842E-7;
-4,98070278183025E-7;
-5,46172706291341E-7;
-4,83577533094436E-7;
-4,54779449573999E-7;
-5,75538545702047E-7;
-8,04389965952211E-7;
-9,41222703830753E-7;
-7,68568817202058E-7;
-2,30484969332599E-7;
4,94372323638042E-7;
1,09083995898206E-6;
1,30891102156735E-6;
1,11999087675799E-6;
7,14185991109631E-7;
3,48394697685347E-7;
1,67116248921985E-7;
1,30766613742648E-7;
9,32772873888323E-8;
-4,97552382694601E-8;
-2,70923622920676E-7;
-4,49359924432024E-7;
-4,94406455780517E-7;
-4,38729525427176E-7;
-4,13770823675042E-7;
-5,24905632305426E-7;
-7,34526294105423E-7;
-8,60702066918405E-7;
-7,05576699496094E-7;
-2,17925492852138E-7;
4,40380314285282E-7;
9,83351055727217E-7;
1,18386350052594E-6;
1,01545822507645E-6;
6,49998212778396E-7;
3,20058354143825E-7;
1,5659228054026E-7;
1,23966513327932E-7;
9,01226322616575E-8;
-3,93860630742232E-8;
-2,39836452002672E-7;
-4,01992972265867E-7;
-4,4385636843244E-7;
-3,94800790341816E-7;
-3,73441477203661E-7;
-4,74943082762646E-7;
-6,65474446739054E-7;
-7,80947984624795E-7;
-6,42778639496137E-7;
-2,04421307071329E-7;
3,88660932551832E-7;
8,79033208856333E-7;
1,06200052310921E-6;
9,13259011622627E-7;
5,86898463399638E-7;
2,91768954192776E-7;
1,45596474235339E-7;
1,16569319957157E-7;
8,62733373537665E-8;
-3,00375439693693E-8;
-2,10253292382847E-7;
-3,56452472465274E-7;
-3,95063080739326E-7;
-3,52278613716253E-7;
-3,34264493811595E-7;
-4,26258414239275E-7;
-5,98083627982878E-7;
-7,02968021077771E-7;
-5,81024797671202E-7;
-1,90287594615531E-7;
3,39621014685163E-7;
7,78898243262663E-7;
9,44574298859853E-7;
8,14486599504925E-7;
5,25612738365184E-7;
2,63915020497735E-7;
1,34345667581779E-7;
1,08760806826218E-7;
8,18799112546076E-8;
-2,16991998301019E-8;
-1,82374603863562E-7;
-3,13112664841333E-7;
-3,48456792831865E-7;
-3,11556089690194E-7;
-2,96618771908308E-7;
-3,79343665479891E-7;
-5,33050648090267E-7;
-6,27582602953251E-7;
-5,21013257390472E-7;
-1,75807433884852E-7;
2,93557552810971E-7;
6,83731725978909E-7;
8,32568651062925E-7;
7,20012766870175E-7;
4,6672323980693E-7;
2,36813551225828E-7;
1,23031466578961E-7;
1,00704849750298E-7;
7,7075435528274E-8;
-1,43448020011392E-8;
-1,56342448261739E-7;
-2,722535318316E-7;
-3,04363214374994E-7;
-2,72935430413928E-7;
-2,60800075148305E-7;
-3,34583760446396E-7;
-4,70922240462629E-7;
-5,55443001876977E-7;
-4,63306970788101E-7;
-1,61221631731547E-7;
2,50676271247882E-7;
5,94117375683209E-7;
7,26729389357471E-7;
6,30501700051778E-7;
4,10684575856722E-7;
2,10725046943303E-7;
1,11810000046013E-7;
9,25405119982933E-8;
7,19814625831052E-8;
-7,93632485786836E-9;
-1,3224539563853E-7;
-2,34074314470203E-7;
-2,63019217473844E-7;
-2,36633329206041E-7;
-2,27030007462582E-7;
-2,92272708416953E-7;
-4,12112944046242E-7;
-4,87050487979283E-7;
-4,08345249379393E-7;
-1,46734821733193E-7;
2,11097993362678E-7;
5,1046152706653E-7;
6,27590414901676E-7;
5,46440438308207E-7;
3,57836262325726E-7;
1,85849314062447E-7;
1,0081885837195E-7;
8,43943871914402E-8;
6,67066711200164E-8;
-2,4250816450685E-9;
-1,10129044321036E-7;
-1,98698266272976E-7;
-2,2458077097423E-7;
-2,02803497067243E-7;
-1,95463181366443E-7;
-2,52620944225081E-7;
-3,56928262355224E-7;
-4,22770469855481E-7;
-3,5645819296314E-7;
-1,32521411473292E-7;
1,74876660870877E-7;
4,33016479934155E-7;
5,35499541799959E-7;
4,68156133353704E-7;
3,08417475238273E-7;
1,62342326260141E-7;
9,01691591138088E-8;
7,63668830152744E-8;
6,13430750436059E-8;
2,24347094950055E-9;
-9,000205023553E-8;
-1,66192102549288E-7;
-1,89137697266644E-7;
-1,71535761780313E-7;
-1,6620001097147E-7;
-2,15767063838175E-7;
-3,05568974484494E-7;
-3,62852362212715E-7;
-3,07881259963169E-7;
-1,18727512678857E-7;
1,42002127312007E-7;
3,61902440067486E-7;
4,50647171306368E-7;
3,9583948393938E-7;
2,62580305177443E-7;
1,40312447778664E-7;
7,99498035304461E-8;
6,85461430801327E-8;
5,59723344536425E-8;
6,12994246147807E-9;
-7,18388216916636E-8;
-1,36564109525087E-7;
-1,56717682257473E-7;
-1,42866594363532E-7;
-1,39288644069421E-7;
-1,81785537984645E-7;
-2,58148945538925E-7;
-3,07444470066567E-7;
-2,62766188002976E-7;
-1,05468098668878E-7;
1,12419678277819E-7;
2,97126040365189E-7;
3,73087395816736E-7;
3,29565746475234E-7;
2,20400432344041E-7;
1,19833479976976E-7;
7,02331729416311E-8;
6,10044803943605E-8;
5,06657929624643E-8;
9,29507643657186E-9;
-5,5593083312115E-8;
-1,09782604829266E-7;
-1,27306187374472E-7;
-1,16792945824543E-7;
-1,14735201181952E-7;
-1,50699683551344E-7;
-2,14709795644492E-7;
-2,56604933362372E-7;
-2,21192118793322E-7;
-9,28393479582717E-8;
8,60329282111434E-8;
2,38601397984122E-7;
3,0275490956469E-7;
2,69308780370898E-7;
1,81890407721999E-7;
1,00941443662278E-7;
6,10698227069245E-8;
5,37980951405532E-8;
4,54822499318701E-8;
1,18038473332976E-8;
-4,1191811268332E-8;
-8,57734468380603E-8;
-1,00840291898853E-7;
-9,32702162519386E-8;
-9,25128435159739E-8;
-1,22486137419163E-7;
-1,75225993583052E-7;
-2,10320353882779E-7;
-1,83173330632461E-7;
-8,09075614886075E-8;
6,27104293268655E-8;
1,86163703942906E-7;
2,39498621407864E-7;
2,1496136943216E-7;
1,47007179845523E-7;
8,36510357830159E-8;
5,24986819836367E-8;
4,69713352497034E-8;
4,04713107221026E-8;
1,37207793194901E-8;
-2,85500460811097E-8;
-6,44398889172836E-8;
-7,72269011900875E-8;
-7,22258623313142E-8;
-7,25637570197275E-8;
-9,70855818150138E-8;
-1,39625487762377E-7;
-1,68512161046759E-7;
-1,48674514372619E-7;
-6,97263779064857E-8;
4,2299490698984E-8;
1,39583911345179E-7;
1,83080221186493E-7;
1,66347567292179E-7;
1,15662486474948E-7;
6,7945723396568E-8;
4,45427816158103E-8;
4,05558490692839E-8;
3,56709342721567E-8;
1,51105668707496E-8;
-1,756710154034E-8;
-4,56583200844706E-8;
-5,63460932717126E-8;
-5,35625495609867E-8;
-5,48087960215485E-8;
-7,44059368622153E-8;
-1,07785348728918E-7;
-1,31052625329212E-7;
-1,17614898455385E-7;
-5,93276564375396E-8;
2,46266307107755E-8;
9,8588847821714E-8;
1,33205988099637E-7;
1,2323574858624E-7;
8,77321890996097E-8;
5,37937902937846E-8;
3,72147938771295E-8;
3,4574802530021E-8;
3,11138910639695E-8;
1,6034214315793E-8;
-8,13637997990114E-9;
-2,92860012301918E-8;
-3,80558146656035E-8;
-3,71631176946998E-8;
-3,91463254246368E-8;
-5,43329179117223E-8;
-7,95531120261092E-8;
-9,77718876333951E-8;
-8,9881307787947E-8;
-4,97298651498665E-8;
9,50574714327606E-9;
6,28639385819916E-8;
8,95353364315267E-8;
8,53563602268527E-8;
6,30644224414704E-8;
4,11446905657322E-8;
3,05154718155863E-8;
2,90408366906743E-8;
2,68228794254107E-8;
1,65519823191418E-8;
-1,44083850068437E-10;
-1,51703076420382E-8;
-2,22011578995637E-8;
-2,28983455485172E-8;
-2,54622460968772E-8;
-3,6730269968556E-8;
-5,47487574172404E-8;
-6,84692690813884E-8;
-6,53284042405675E-8;
-4,09380445065489E-8;
-3,25632335191963E-9;
3,20714394804059E-8;
5,16885369588053E-8;
5,24031976606707E-8;
4,14836179144682E-8;
2,99360745370871E-8;
2,44392543586014E-8;
2,39612462332864E-8;
2,28157051407921E-8;
1,67207544432367E-8;
6,52752476647965E-9;
-3,15131765951739E-9;
-8,61786972484027E-9;
-1,06283659800687E-8;
-1,36356693813651E-8;
-2,14535133797601E-8;
-3,31737172613138E-8;
-4,29194366647623E-8;
-4,37923230572935E-8;
-3,29446415430984E-8;
-1,38551585918291E-8;
5,85285769738796E-9;
1,92658078777664E-8;
2,40530389012223E-8;
2,27988928639772E-8;
2,00950896602224E-8;
1,89717536866253E-8;
1,93334773972184E-8;
1,91020093936357E-8;
1,65920427932228E-8;
1,19943946122309E-8;
6,93965780595731E-9;
2,86807976000511E-9;
-2,07086352358074E-10;
-3,53447129791319E-9;
-8,34209625244576E-9;
-1,46118538576795E-8;
-2,08806491685176E-8;
-2,50913696006906E-8;
-2,57342806194231E-8;
-2,2489729984905E-8;
-1,61517813869248E-8;
-8,14293844821836E-9;
-3,34572626637269E-11;
6,80999933057408E-9;
1,15411825108991E-8;
1,40914323011278E-8;
1,51497327466455E-8;
1,56871868942268E-8;
1,62176205542514E-8;
1,63732213045831E-8;
1,52660810308587E-8;
1,24302411793149E-8;
8,51683359289381E-9;
4,97522023855723E-9;
2,76405332365867E-9;
1,15802095480972E-9;
-2,09740901944255E-9;
-9,03267022093109E-9;
-1,92825316985701E-8;
-2,93543387938322E-8;
-3,43129675164595E-8;
-3,09596395967391E-8;
-2,02018731167935E-8;
-6,69036391017863E-9;
4,18975101032255E-9;
9,77481582940406E-9;
1,1399474399272E-8;
1,25723623252089E-8;
1,56401261310117E-8;
1,97775340134519E-8;
2,19983691353649E-8;
2,02435444653954E-8;
1,56924923299463E-8;
1,20291515671544E-8;
1,20300683722615E-8;
1,43610134862668E-8;
1,36845192462072E-8;
4,57758556786498E-9;
-1,35602520379602E-8;
-3,46366917299749E-8;
-4,89927844430897E-8;
-4,96013872777446E-8;
-3,67984678862985E-8;
-1,79128402450886E-8;
-2,04943661248992E-9;
5,99186506724097E-9;
8,06651742274944E-9;
9,75475439310334E-9;
1,49034761432906E-8;
2,23166508173695E-8;
2,72975334444148E-8;
2,64807797836401E-8;
2,14661924515449E-8;
1,77621467276924E-8;
1,96236416845049E-8;
2,52243281863346E-8;
2,67291609924533E-8;
1,59456200627738E-8;
-8,5311570393918E-9;
-3,85193017236694E-8;
-6,05463691869362E-8;
-6,44788951236125E-8;
-5,01632408313627E-8;
-2,7062606126976E-8;
-7,26471030484719E-9;
2,71271274722827E-9;
5,1318542459583E-9;
7,22509740746067E-9;
1,40421321492633E-8;
2,40956396634851E-8;
3,1319740090033E-8;
3,13047392978032E-8;
2,59845876915917E-8;
2,23063948445927E-8;
2,57044235529516E-8;
3,39726505908713E-8;
3,72899932262404E-8;
2,52670703614254E-8;
-4,15698484468898E-9;
-4,11756036081176E-8;
-6,93150944273323E-8;
-7,59880775750313E-8;
-6,06288137520436E-8;
-3,43465539858991E-8;
-1,15483371864221E-8;
-9,67910683139619E-11;
2,57349197826621E-9;
4,97692783415325E-9;
1,30932777917238E-8;
2,52114711415825E-8;
3,42150659298148E-8;
3,48798923422316E-8;
2,93843156908088E-8;
2,57864323799689E-8;
3,04308296351777E-8;
4,08193773256696E-8;
4,56174032388619E-8;
3,27421085214717E-8;
-3,95702037802568E-10;
-4,27670309625704E-8;
-7,56271340681455E-8;
-8,45135864556784E-8;
-6,85162790137277E-8;
-3,99611763169528E-8;
-1,49874595222248E-8;
-2,47023424055064E-9;
3,69161094460184E-10;
2,99530182932134E-9;
1,20840822514357E-8;
2,57596526348742E-8;
3,61274410528625E-8;
3,73565927396175E-8;
3,17996916878252E-8;
2,83285676894067E-8;
3,3955137277212E-8;
4,59777979422542E-8;
5,19549747933145E-8;
3,85581535930769E-8;
2,79652497743073E-9;
-4,344572439888E-8;
-7,979304674038E-8;
-9,0416594184522E-8;
-7,41303644380753E-8;
-4,40946921399713E-8;
-1,76668580632897E-8;
-4,44422583773352E-9;
-1,50498549523953E-9;
1,269710583056E-9;
1,1039881217537E-8;
2,58241299917052E-8;
3,71876356460614E-8;
3,88771595229369E-8;
3,33568021581711E-8;
3,00459978688048E-8;
3,64184226005431E-8;
4,96439961895173E-8;
5,65322210675328E-8;
4,29013271099331E-8;
5,46312316100888E-9;
-4,3354694675203E-8;
-8,21042732103155E-8;
-9,40403659128832E-8;
-7,77605275104379E-8;
-4,69302994353316E-8;
-1,96735939597928E-8;
-6,05310228400118E-9;
-3,07404166548684E-9;
-2,17558278288493E-10;
9,98306807711238E-9;
2,54850969527009E-8;
3,75217094357585E-8;
3,95781682196417E-8;
3,41733817011898E-8;
3,10494631898267E-8;
3,79611242060683E-8;
5,20094349203284E-8;
5,95679788266125E-8;
4,59470288915724E-8;
7,65122183127072E-9;
-4,26196923884496E-8;
-8,28274893021831E-8;
-9,57019497681151E-8;
-7,96755885180434E-8;
-4,86344378234152E-8;
-2,10842922114861E-8;
-7,33176347189959E-9;
-4,36409774016756E-9;
-1,48079605845914E-9;
8,9328241573778E-9;
2,48125691577352E-8;
3,72434525586497E-8;
3,95824977242926E-8;
3,43555502925706E-8;
3,14391803701452E-8;
3,87088955808764E-8;
5,32486453777031E-8;
6,12683270901481E-8;
4,78589077935637E-8;
9,40132882233871E-9;
-4,1358761362413E-8;
-8,22146790532967E-8;
-9,56998373805908E-8;
-8,01270249952815E-8;
-4,93679289420265E-8;
-2,19751677815865E-8;
-8,31349864780858E-9;
-5,39989655170742E-9;
-2,53590933872378E-9;
7,90462338654397E-9;
2,38729929526258E-8;
3,64578781818076E-8;
3,90035007867609E-8;
3,40065280682096E-8;
3,13100063733958E-8;
3,87792728140728E-8;
5,35274442193275E-8;
6,18236615868153E-8;
4,8792937686358E-8;
1,07594209844443E-8;
-3,96800277243326E-8;
-8,04942230004014E-8;
-9,43053090494547E-8;
-7,93475980236971E-8;
-4,92770319155079E-8;
-2,24159288946699E-8;
-9,03030352482459E-9;
-6,20675519021608E-9;
-3,40024424481031E-9;
6,91252225726125E-9;
2,27259196812313E-8;
3,5260095714583E-8;
3,79436689735945E-8;
3,32166681247914E-8;
3,07485738793085E-8;
3,82801897737669E-8;
5,29957911471663E-8;
6,14111439092785E-8;
4,88911827273764E-8;
1,17664892798087E-8;
-3,76759731687294E-8;
-7,78701243602422E-8;
-9,17637377766846E-8;
-7,75479867339251E-8;
-4,84941181574873E-8;
-2,24728802462172E-8;
-9,51526942384095E-9;
-6,80791654039038E-9;
-4,09277032856477E-9;
5,96529601647076E-9;
2,14218065186197E-8;
3,37351662979033E-8;
3,6501413801456E-8;
3,20709791889092E-8;
2,98324817295116E-8;
3,73118102130027E-8;
5,17925107633541E-8;
6,01927447300732E-8;
4,82872808971801E-8;
1,24634065521638E-8;
0,00933339861523089;
0,0226296552919851;
0,0163726489732195;
0,00943302125870082;
0,0121693446421605;
0,00702614512546713;
0,00563480733452668;
0,00458270282662713;
0,000840495462368987;
0,00103239744213334;
-0,00119041948864042;
-0,00199192069747992;
-0,00280710217854829;
-0,00455365067674576;
-0,00488729636730683;
-0,0058558647455086;
-0,0059411672290375;
-0,00618243000788374;
-0,00699352956700329;
-0,00792069066008007;
-0,00934892101494344;
-0,0102429593573704;
-0,0105185835134457;
-0,0101085947780595;
-0,00920771000452848;
-0,00843031847086341;
-0,0078304440671215;
-0,0074574789827217;
-0,00704805830005349;
-0,00641867283321693;
-0,00567543511273186;
-0,00495845727088495;
-0,00445304862699468;
-0,00409073841175379;
-0,0036637986564693;
-0,00302653311970434;
-0,00222818468020885;
-0,00157277316198162;
-0,00136103101665084;
-0,00166523250036119;
-0,00222575592863027;
-0,00258712812992992;
-0,00240684171556063;
-0,00165725256497189;
-0,000624777190505116;
0,000316648781324103;
0,000963653670580935;
0,00137586126408827;
0,00176512645804708;
0,00227846539575436;
0,00287372883401357;
0,00337823697129884;
0,00366497293257663;
0,00378445279278615;
0,00392477326518227;
0,00423348050814268;
0,00465414849959934;
0,00492918258707229;
0,00478543952860418;
0,0041620689653074;
0,00329836616959959;
0,00260114314107369;
0,00238397247385548;
0,00267127077268278;
0,00320912988657423;
0,00366537556898289;
0,00385875858703272;
0,00384593704395229;
0,00381729957460914;
0,00390619163114865;
0,00407640477451213;
0,00417464572113673;
0,0040891765889884;
0,00386596381006473;
0,00367397470548019;
0,00364554976659406;
0,00373092635901947;
0,00370130624880893;
0,00331399003701311;
0,00251556770909928;
0,00151953898905376;
0,000688031710021517;
0,000299852579600517;
0,000376437033198336;
0,000691996887335042;
0,000951413452163273;
0,00099374586768469;
0,000869175988743735;
0,000746299137939661;
0,000742937952819001;
0,000826549872133292;
0,000860938461836327;
0,000746801595562964;
0,000524400083849534;
0,000342663977232904;
0,000317947072137858;
0,00040559218176266;
0,000402907074263782;
9,51582426155286E-5;
-0,00056516841026516;
-0,0107236393485364;
-0,0246910560669484;
-0,0187064179283907;
-0,0116224140575181;
-0,0139972741153913;
-0,00853594067206848;
-0,00701193031346356;
-0,00596903017507995;
-0,00223034538876223;
-0,00231727025220601;
8,97786132142311E-5;
0,00103465750239435;
0,00186476676114402;
0,00353262395223665;
0,00382394700440893;
0,00488788933497661;
0,00516659920979304;
0,00552149942118251;
0,00617838871359645;
0,00664178474275848;
0,00746062833908262;
0,00787754846485957;
0,00802152832984989;
0,00784047995430254;
0,00735459191296776;
0,0069510393789271;
0,00655990929226696;
0,00626842468744316;
0,0059414453558108;
0,00548465915536159;
0,00497856181330814;
0,00445881586156416;
0,00403465840295498;
0,00366785302365671;
0,00326337284495089;
0,00276325877740423;
0,0021823034689092;
0,00167058967724603;
0,00136625749228575;
0,00130577218903149;
0,00137145322035614;
0,00134800064526494;
0,00107693826405823;
0,000543538200272399;
-0,000116364257552186;
-0,000724598456125759;
-0,00118435517373895;
-0,00152245610678557;
-0,00184025039158963;
-0,00220794401175248;
-0,00260530846987592;
-0,00294922433779767;
-0,00317774926366271;
-0,00331521652792362;
-0,00345290552984432;
-0,00366307062652767;
-0,0039186914155116;
-0,00409374219148179;
-0,00405384317690175;
-0,00376837236160076;
-0,00335503625479835;
-0,00301542352640145;
-0,00290607549401866;
-0,00304044756117347;
-0,00329293660061882;
-0,00349794079599862;
-0,00356466886751248;
-0,00352165560103282;
-0,00346522148127352;
-0,00346339986932715;
-0,00349852155735122;
-0,00349313557065676;
-0,00339048314282935;
-0,00321417969031776;
-0,00305114157448999;
-0,00297000173453123;
-0,00294583984241795;
-0,00286089183820394;
-0,00258936729985482;
-0,00210308127921494;
-0,00151284982401944;
-0,0010079145097661;
-0,000735038227380228;
-0,000706607575307911;
-0,000804756505484626;
-0,000874215478637477;
-0,000829837065381986;
-0,000698128807891683;
-0,000568863796942286;
-0,000505247016908847;
-0,000490300215016846;
-0,000451211681920125;
-0,000334533548809605;
-0,000161825548808207;
-1,3630931665862E-5;
4,66718121673556E-5;
4,29662657624226E-5;
8,55988668259242E-5;
0,00029227591732817;
0,00068974003960966;
0,00117540139681143;
0,00157385900474208;
0,00174939226777634;
0,00169128489395564;
0,00150980445778596;
0,0013498207224342;
0,00129096631264871;
0,00130920394081913;
0,00132184606582945;
0,00127090331316966;
0,00117272068530867;
0,00109531520723149;
0,00108868464112887;
0,00113334126034034;
0,00115523561190558;
0,00109624610182405;
0,000978944390596991;
0,000905738437942243;
0,000985699796126435;
0,0012437819392306;
0,00158553312990509;
0,00184940605821401;
0,00191058217334961;
0,00175956657176405;
0,00149832235575809;
0,00126055756002805;
0,00111976562990029;
0,0010539407659514;
0,000987123872227901;
0,000866118660259719;
0,000706083799678543;
0,000569616069367592;
0,000502678224343154;
0,000487373521867483;
0,000455731570028487;
0,000354443012493129;
0,000204229650548934;
9,89569783336506E-5;
0,000138486786559189;
0,000345520060062479;
0,000633395395015497;
0,000854113312363145;
0,000893404852579448;
0,000742562504526916;
0,000494766825409176;
0,000272112468771441;
0,000141574275149203;
8,28647387622656E-5;
2,64682596700351E-5;
-7,63042060277356E-5;
-0,000211765062742217;
-0,000323000536538455;
-0,000368311948708249;
-0,000364210282315532;
-0,000372784600404421;
-0,000442721259497315;
-0,000555306335959858;
-0,000625322616241455;
-0,000562181189702179;
-0,000345496131351134;
-5,42425254371322E-5;
0,00017698201641027;
0,000244321308725736;
0,000139793978543412;
-5,21613840874785E-5;
-0,000220961321360257;
-0,000306063095400023;
-0,000326016042296098;
-0,000343920524996948;
-0,00040396372572301;
-0,000493852819327059;
-0,00056220840617467;
-0,000571447399930236;
-0,000536616494639395;
-0,000513912121295263;
-0,000547370044726401;
-0,000620144626852946;
-0,000655398696199575;
-0,000571514864682907;
-0,000350232681938589;
-6,2841706103447E-5;
0,000169333140364255;
0,000252759326575718;
0,000180284234912393;
2,79167261767932E-5;
-0,000104880129434756;
-0,000163704313439873;
-0,00016526170241;
-0,000166251564233503;
-0,000206337823914136;
-0,000274458801283722;
-0,000324496997063679;
-0,000322744438106462;
-0,000282693010353338;
-0,000254686328453498;
-0,000278127453490029;
-0,000337878543693857;
-0,000365129912217616;
-0,00028685646615917;
-8,67453190682913E-5;
0,00017146858475928;
0,000379407275300845;
0,000453606238560606;
0,000387777538872927;
0,000249839025331512;
0,000128570220233441;
7,25080955346442E-5;
6,67897621499609E-5;
6,09466958659072E-5;
1,97213310978319E-5;
-4,69737349956415E-5;
-9,80546586851458E-5;
-0,000103509977240998;
-7,53043421590582E-5;
-5,81287632594194E-5;
-8,69187238593154E-5;
-0,000148169217852244;
-0,000180771940392485;
-0,000119938310116112;
4,87880132458135E-5;
0,000268922635152792;
0,000444491094136067;
0,000501655725801503;
0,000434930952959672;
0,000304465485963436;
0,000188797875360665;
0,000130839436598901;
0,000117469114955013;
0,000104145031160806;
5,97859370720586E-5;
-6,82501394435402E-6;
-5,94368290821473E-5;
-7,15919628959123E-5;
-5,38303342672579E-5;
-4,54935915068292E-5;
-7,73028833038255E-5;
-0,000137346862971015;
-0,000171878581574207;
-0,000123970656020388;
1,90411422694725E-5;
0,000207528599171711;
0,000357255548606629;
0,000403475754183036;
0,000341418817814571;
0,000223825508443067;
0,000119493765292614;
6,5975214411861E-5;
5,17677931178918E-5;
3,79060974444001E-5;
-2,77463767297148E-6;
-6,25920991284431E-5;
-0,000109892017063171;
-0,000121599693666212;
-0,0001069341101598;
-0,000100213728215806;
-0,000128210938952721;
-0,000180542909188869;
-0,000210422234914562;
-0,000168342975356774;
-4,33399375469881E-5;
0,000121400492627526;
0,000252670782405496;
0,00029425527193326;
0,00024203556111585;
0,000141774746128983;
5,31108686158485E-5;
8,55720942130299E-6;
-1,87389517909771E-6;
-1,19228014071417E-5;
-4,50889598562913E-5;
-9,47277652295547E-5;
-0,000133494292761173;
-0,00014148147203052;
-0,000126670312989966;
-0,000118678650193351;
-0,000140586370266161;
-0,00018343966129457;
-0,000206951488378037;
-0,000168540616098645;
-5,88178197818866E-5;
8,50526284362554E-5;
0,000200158576585723;
0,000238242332940552;
0,000195794973925965;
0,000112081807129098;
3,82170477049637E-5;
2,03375648064912E-6;
-5,03544730973563E-6;
-1,18609417851926E-5;
-3,85260874283509E-5;
-7,93429233313136E-5;
-0,000110960829372315;
-0,000116403332230877;
-0,000102490659115585;
-9,44685512724624E-5;
-0,000111983532939216;
-0,00014739896904863;
-0,000166443082408057;
-0,000132937895079068;
-3,89398661737868E-5;
0,00941740832210559;
0,0228121584996951;
0,0165882698313372;
0,0096134410498035;
0,012279522494708;
0,00707430425589458;
0,00565270066785268;
0,00459483316865147;
0,000846986257717971;
0,0010164379743483;
-0,00124082735602429;
-0,00206909199874663;
-0,00288906263633927;
-0,0046241730800873;
-0,00495137861731537;
-0,00593499610861348;
-0,00605040696051242;
-0,00630808045283713;
-0,00709158140351139;
-0,00794050943636049;
-0,00926632356481636;
-0,0100784013200437;
-0,0103266671553511;
-0,00994634589237592;
-0,00910437987781352;
-0,00837910533610866;
-0,00780496671540035;
-0,00743739590026398;
-0,00703328646120722;
-0,00642317612657908;
-0,00570916910451722;
-0,00501505683286017;
-0,00451432149446034;
-0,00414325686956366;
-0,00371168066879919;
-0,00308750321876557;
-0,00231464409715531;
-0,00167341119716676;
-0,00143958818563886;
-0,00168002876280606;
-0,00215688166081191;
-0,00245133765399913;
-0,00224888461128557;
-0,00152383396995666;
-0,000539838256610777;
0,000358659904429198;
0,000984275847773885;
0,00139169172301142;
0,00177624407886956;
0,0022735199033155;
0,00284464475816813;
0,00333020641505477;
0,00361278048170326;
0,00373900738326785;
0,00388276968404336;
0,00418061655521115;
0,00458043981525878;
0,00484378838430953;
0,00471761514543876;
0,00414540088013725;
0,00334890127153401;
0,00270546862043654;
0,00250623332341653;
0,00277407559992123;
0,00327332675021145;
0,00369538616304086;
0,00387175146818607;
0,00385512808727392;
0,00382275469719599;
0,00389890317204212;
0,00404997756600986;
0,00413320349172273;
0,00404442503484827;
0,00382653206932879;
0,00363727145865674;
0,00360032987746485;
0,00366935811571533;
0,00363059984757118;
0,00325709789063097;
0,00249879750228757;
0,00155545324376339;
0,000766189991957835;
0,000392346174383867;
0,000454195206209659;
0,000740138052042288;
0,000973333945781734;
0,00100269201376452;
0,000875326206963936;
0,000749691859552078;
0,000736641611984895;
0,000805653785891842;
0,000828598162763987;
0,000711962044080938;
0,00049364325207894;
0,000314020193206825;
0,000282880367399366;
0,000358174445915301;
0,000348601433312615;
5,12973972645971E-5;
-0,000578762534604824;
-0,0106975150778473;
-0,0246330262385247;
-0,018637345525206;
-0,0115639916787367;
-0,0139605991415214;
-0,00851852904176804;
-0,00700401522666307;
-0,00596312767825752;
-0,00222644482766576;
-0,00232046845739419;
7,5882080565502E-5;
0,00101236002019741;
0,0018405710273696;
0,00351130132145605;
0,00380407544378474;
0,00486332385201895;
0,00513309146793918;
0,00548297181043226;
0,0061472191148084;
0,0066320782632328;
0,00747909438410715;
0,00791868584103145;
0,00807067456376443;
0,00788243533627379;
0,00738159184788997;
0,00696477343692554;
0,00656709513785461;
0,00627418686582734;
0,00594577540830468;
0,00548407449226545;
0,00497061757328984;
0,00444506299070346;
0,00401946593311117;
0,00365441205380115;
0,00325074479033367;
0,00274739393470099;
0,00216042643778044;
0,00164528144914807;
0,00134557313370178;
0,00129882951335366;
0,00138257017975664;
0,00137369197372262;
0,00110794669314648;
0,000570323631418094;
-9,8658325877766E-5;
-0,00071496581435903;
-0,00117872228864948;
-0,001517743031113;
-0,00183647732269842;
-0,00220718768446116;
-0,00260900743562582;
-0,00295647080165392;
-0,0031860200195605;
-0,00332268667661234;
-0,00346009280353747;
-0,00367220932356275;
-0,00393128067956914;
-0,00410835858789967;
-0,00406616554596607;
-0,0037735902783168;
-0,0033508980662229;
-0,00300367847359419;
-0,00289132277111074;
-0,00302735021238602;
-0,00328384374433846;
-0,00349242983721069;
-0,00356093635842209;
-0,00351837637342902;
-0,00346242442793109;
-0,00346195392509061;
-0,00349900097954304;
-0,0034951831741899;
-0,00339315709140318;
-0,00321682549289611;
-0,00305391769818031;
-0,00297359062747393;
-0,0029506503943288;
-0,00286649036741606;
-0,00259462235330059;
-0,00210686110836978;
-0,00151466967302554;
-0,00100804955552028;
-0,000734124767215102;
-0,000705159413521946;
-0,00080298909458997;
-0,000872199785085317;
-0,000827695556968564;
-0,000696024772663403;
-0,000566833701535372;
-0,000503136675342638;
-0,00048795225077093;
-0,000448735245536068;
-0,000332324966231116;
-0,000160220843236628;
-1,24868670214913E-5;
4,79808913093942E-5;
4,49496897192047E-5;
8,78548959181258E-5;
0,000293247620050164;
0,000687459703391777;
0,00116886286926741;
0,00156402046365495;
0,00173894107703587;
0,00168318735861263;
0,00150563531363787;
0,00134909827285223;
0,00129195852428162;
0,00131050398108257;
0,00132341144868076;
0,00127374252179052;
0,00117760171935581;
0,00110174054233454;
0,00109514344657119;
0,00113867266893484;
0,0011598328034062;
0,00110182068718163;
0,000986767469326192;
0,000914714987572886;
0,000992043925841167;
0,00124295706855678;
0,0015752956983521;
0,00183172917783617;
0,00189089460636498;
0,00174370515635074;
0,00148933948469357;
0,0012576369629024;
0,00111985466274112;
0,00105461290555863;
0,000988332844453068;
0,000869574391296901;
0,000713055571626006;
0,00057928963636233;
0,000512632349697326;
0,00049577382418507;
0,000463174933275938;
0,000363526005707866;
0,000216843780816182;
0,000113443548188117;
0,000149248348276902;
0,000345933055540306;
0,000620209525570523;
0,000830119629028605;
0,000866246907366721;
0,000720396260864159;
0,000481839657106362;
0,000267342394854734;
0,000140849283992674;
8,29409960610512E-5;
2,72978456758528E-5;
-7,24478556845426E-5;
-0,000203210024400415;
-0,000310813106880474;
-0,000355639668512618;
-0,000353424537995345;
-0,00036312641526633;
-0,000430890160294858;
-0,000538917736128273;
-0,000606482291030825;
-0,000547922566231843;
-0,0003440961741403;
-6,97506113421327E-5;
0,000147998124575533;
0,000211247012566162;
0,000112609074349396;
-6,826868389515E-5;
-0,00022727747163162;
-0,000307525708924628;
-0,00032650526370273;
-0,000343484340244245;
-0,000399889043320138;
-0,000484153728130191;
-0,000548145740607468;
-0,000556730639108092;
-0,000524032234156404;
-0,000502576703003707;
-0,000533441093516646;
-0,000600858478442254;
-0,000633204387534067;
-0,000554546852861207;
-0,000348034628714157;
-8,00767710855373E-5;
0,00013658103795958;
0,000215196180092473;
0,000149272442279665;
9,35869557780681E-6;
-0,000112421414145761;
-0,00016578471874316;
-0,000166237192750272;
-0,000166169077558831;
-0,00020215486404588;
-0,000263954442652547;
-0,000309075862435158;
-0,000306532396576445;
-0,000268784046132061;
-0,000242105361303929;
-0,000262633790744935;
-0,000316430503364767;
-0,000340428066737852;
-0,000267840050269498;
-8,3882629396635E-5;
0,000153064672849506;
0,000343998066992679;
0,000412846605301804;
0,000354023055494362;
0,000229506102531609;
0,000120118445202006;
6,99457618353819E-5;
6,54262498042988E-5;
6,07369963119824E-5;
2,39402502008571E-5;
-3,59398188953202E-5;
-8,17096263137657E-5;
-8,62682323569788E-5;
-6,04725374575097E-5;
-4,46695203042989E-5;
-7,03189750283334E-5;
-0,000125197892869365;
-0,000154300701818813;
-9,94514553178449E-5;
5,21974428180459E-5;
0,000249836140546343;
0,000407394398848596;
0,000458827839516037;
0,000399380317301644;
0,00028294746288358;
0,000179709576367801;
0,00012791229085185;
0,000115800878834093;
0,000103693375744735;
6,39733695669562E-5;
4,49273083743794E-6;
-4,25531876518966E-5;
-5,37341227800716E-5;
-3,8435170511413E-5;
-3,14866388345278E-5;
-6,00080281135732E-5;
-0,000113420552192687;
-0,000144293716424095;
-0,000102531201904466;
2,2877669675897E-5;
0,000188163369459785;
0,000319294572411771;
0,000359541466757038;
0,000304878240916796;
0,000201621456979422;
0,000109995957492585;
6,27752494874347E-5;
4,98578482368417E-5;
3,72471213575416E-5;
1,31458865235565E-6;
-5,12108743787777E-5;
-9,28104763062793E-5;
-0,000103491144632929;
-9,12947230639669E-5;
-8,59535644551931E-5;
-0,000110584710700819;
-0,000156160612812145;
-0,000182298092417557;
-0,000146407261014356;
-3,91913444385984E-5;
0,000102090513094028;
0,000214539826881067;
0,00025002934856798;
0,000205188720864371;
0,000119307623006853;
4,33954113037175E-5;
5,16182370301172E-6;
-3,97236813916884E-6;
-1,27597202778188E-5;
-4,11545774306564E-5;
-8,34703085344939E-5;
-0,000116504533160131;
-0,000123433083455117;
-0,000111058545801008;
-0,000104416413710576;
-0,000122938819467573;
-0,000159026356777313;
-0,000178777260392611;
-0,000146498331357367;
-5,4458252739889E-5;
6,60768151809536E-5;
0,000162442034241822;
0,000194412461149311;
0,000159220689862362;
8,97120733845244E-5;
2,84506697510937E-5;
-1,48619263293741E-6;
-7,27177098986E-6;
-1,2845062244244E-5;
-3,47880627450586E-5;
-6,83605264533514E-5;
-9,43004255791499E-5;
-9,86709922001558E-5;
-8,71303255059939E-5;
-8,04112856525793E-5;
-9,45714682436645E-5;
-0,000123308041080353;
-0,000138626458071339;
-0,00011111449723299;
-3,44548184979523E-5;
0,00939899759932644;
0,0227753421345979;
0,0165454088869046;
0,00957762320262422;
0,0122575540154228;
0,00706463088879407;
0,0056491208785162;
0,00459250695050839;
0,000845886243646264;
0,00101995102071385;
-0,0012302396148713;
-0,00205295226414312;
-0,00287185348756938;
-0,00460924571531906;
-0,00493769479980199;
-0,0059180295504462;
-0,00602692839310487;
-0,00628095677422882;
-0,00707024576148413;
-0,00793597209743396;
-0,00928398387564361;
-0,0101139235085717;
-0,0103680929444187;
-0,00998101220960588;
-0,00912569737838569;
-0,00838856533576935;
-0,00780855010781217;
-0,00743976945215585;
-0,00703447348099027;
-0,00641990789741721;
-0,00569906975679084;
-0,00499958996969253;
-0,00449780122486031;
-0,00412890829448822;
-0,00369850630037168;
-0,00307115217566522;
-0,00229201273414451;
-0,00164725244464095;
-0,00141895989755573;
-0,00167550287869298;
-0,0021736489321818;
-0,00248525595188302;
-0,00228850672443712;
-0,00155703531582056;
-0,000560305521968524;
0,000349510712374672;
0,000980735812514623;
0,00138930699488582;
0,00177499533422265;
0,00227653004264863;
0,00285418399821667;
0,00334488227011518;
0,0036284825036442;
0,00375266266793839;
0,00389532716026264;
0,00419621753375029;
0,00460203828227393;
0,00486876688764655;
0,00473736068221247;
0,00414986024527512;
0,00333313178771783;
0,00267338887875534;
0,0024686963149343;
0,00274257985999103;
0,003253863978123;
0,00368662480660547;
0,00386829354094781;
0,00385276274637999;
0,00382146645622276;
0,00390164801657794;
0,00405890488649705;
0,00414700089581861;
0,0040592122235014;
0,00383940798757272;
0,0036491306407293;
0,0036150784751265;
0,00368978245900234;
0,00365423398217678;
0,00327582549541606;
0,00250314404354637;
0,00154075376631013;
0,000736117933657855;
0,000357099389083296;
0,000424581926728293;
0,000721794762848497;
0,000965019868023213;
0,00099934811609608;
0,00087300628418447;
0,00074838405517843;
0,000739119709792213;
0,000813935340058414;
0,000841457179946729;
0,000725767193050876;
0,000505679292525817;
0,000325123171570102;
0,000296703236472024;
0,000377323195917827;
0,000370772798522817;
6,89079776435481E-5;
-0,000574566675994162;
-0,0107111001929825;
-0,0246609784232865;
-0,0186701634919588;
-0,0115916013147551;
-0,0139777422581567;
-0,00852635177595077;
-0,0070072191758569;
-0,00596538017311634;
-0,00222775434627484;
-0,00231825361594756;
8,3499639002716E-5;
0,0010242446823307;
0,00185335255822387;
0,00352245929988661;
0,003814384851026;
0,00487617298424577;
0,00515089792744032;
0,00550360200924456;
0,00616364523643083;
0,00663609320214434;
0,0074666440023162;
0,00789291638376216;
0,00804036623243835;
0,00785690204886611;
0,00736569956561164;
0,00695747243390146;
0,00656405147550439;
0,00627201993457789;
0,00594447982509498;
0,0054860334548462;
0,00497756604501614;
0,00445595771917895;
0,00403120413551859;
0,00366467284886917;
0,0032602408239568;
0,00275924306651014;
0,0021768538331108;
0,00166432657218362;
0,00136077471848958;
0,00130263999800268;
0,00137125441017361;
0,00135012575323964;
0,00108017912078065;
0,000546897588998745;
-0,00011327517064724;
-0,000721726782483661;
-0,00118159048532828;
-0,00151980995741959;
-0,00183774557027765;
-0,0022054742503977;
-0,00260272223129093;
-0,00294656443787927;
-0,00317532639498605;
-0,00331332606181749;
-0,00345141504829299;
-0,00366136794828674;
-0,00391624359361392;
-0,0040909129777705;
-0,00405220511117819;
-0,00377000183419121;
-0,00336109649995959;
-0,0030250567047627;
-0,00291656054143995;
-0,00304867360929724;
-0,00329718277917881;
-0,00349864291023742;
-0,00356361851202287;
-0,0035203322163487;
-0,0034636540716908;
-0,00346047337572147;
-0,00349336421060728;
-0,00348624929405436;
-0,00338349382391174;
-0,00320835450779113;
-0,00304605056388282;
-0,00296374912233777;
-0,00293699327789164;
-0,00285063375169611;
-0,00258189970266126;
-0,00210350695304146;
-0,00152378206115869;
-0,00102728468119658;
-0,000756878705996217;
-0,000724414378707142;
-0,000815066578676072;
-0,000877865956938592;
-0,00083018509203437;
-0,000697861421924584;
-0,00056801541522186;
-0,000501874623745108;
-0,000482941738577218;
-0,000440746194073309;
-0,000323665059428576;
-0,000152617700083803;
-5,41223380072709E-6;
5,68434594649449E-5;
5,72551786308174E-5;
0,000102153867589865;
0,000304752630007609;
0,000690572069816428;
0,00116079405153337;
0,00154685947873372;
0,00171859640675329;
0,00166594234420175;
0,00149478777561519;
0,00134397061435312;
0,00128966473036635;
0,00130879201672862;
0,00132228521202117;
0,00127480170139529;
0,00118201396797862;
0,00110882186810562;
0,00110283729798769;
0,00114543885843794;
0,00116614157258172;
0,00110973589855799;
0,000997764369670056;
0,00092750470550543;
0,00100236525767735;
0,00124582430103983;
0,00156821929293246;
0,0018165542526807;
0,00187286179986116;
0,0017283921268748;
0,00147967786238149;
0,0012530333182253;
0,00111775674676706;
0,00105302879765941;
0,000987267989855211;
0,000870447082174239;
0,000716901969923246;
0,000585507683622648;
0,000519405514691634;
0,000501741105780902;
0,000468751211114661;
0,000370533901921266;
0,000226586835447308;
0,000124786000330746;
0,00015843108866996;
0,000348555385609121;
0,000614067889749656;
0,0008168279793794;
0,000850410849221411;
0,000706922055349713;
0,000473310124636432;
0,000263243308158484;
0,000138944833550316;
8,14858772378645E-5;
2,6298754489349E-5;
-7,17449215009908E-5;
-0,000199893874545789;
-0,00030540843060257;
-0,000349735752423855;
-0,000348212693214512;
-0,000358244104887407;
-0,000424743029376253;
-0,000530364769264262;
-0,000596514602135144;
-0,000539824627029384;
-0,000341715473858215;
-7,50196747633462E-5;
0,000136476166536091;
0,000197479433172295;
0,000100869139534774;
-7,57274083794741E-5;
-0,000230895354398884;
-0,000309241247755964;
-0,000327832031757179;
-0,000344414654709311;
-0,000399339118471842;
-0,000481330109164806;
-0,000543500697462613;
-0,000551640213281826;
-0,000519528452765101;
-0,00049834608217734;
-0,000528103393027723;
-0,000593425184091489;
-0,000624531160467115;
-0,000547473365228336;
-0,000345889733402725;
-8,4538324171375E-5;
0,000126707826632486;
0,000203359666323074;
0,000139154196500294;
2,90412326135942E-6;
-0,000115584415141989;
-0,000167317665535609;
-0,000167437753343242;
-0,000167028840841178;
-0,000201741475787048;
-0,000261584439989715;
-0,000305134313427441;
-0,000302196905948821;
-0,000264938373375492;
-0,000238481613234368;
-0,000258050903817107;
-0,00031004189062528;
-0,000332963599131227;
-0,000261725996067571;
-8,19656050464478E-5;
0,00948277821618968;
0,0229653781128857;
0,0167755353730135;
0,00977850499622672;
0,0123933772586562;
0,00714354922205142;
0,00570340481069578;
0,00464705854611842;
0,000900448565064269;
0,00105662545401088;
-0,00122442359753482;
-0,00207036690499598;
-0,00288976457808901;
-0,00461091490533343;
-0,00492893134494312;
-0,00592233502823645;
-0,00606099347147898;
-0,00633044429072021;
-0,00708780546728723;
-0,00786680731183298;
-0,0184355319835612;
-0,032472177623385;
-0,0264408150437096;
-0,0191494694782554;
-0,0210987678622652;
-0,0152790944961131;
-0,0133385310508695;
-0,0119253400672434;
-0,00778557753462392;
-0,00738690848384264;
-0,00447894089266572;
-0,00300638112905087;
-0,00169667251201541;
0,000427162809991028;
0,00119456196327507;
0,00277256909150301;
0,00360409793475291;
0,00447068108241703;
0,00553436987935019;
0,00627982717057302;
0,00730888851116148;
0,00796943752966337;
0,00846436881818287;
0,00875024928999121;
0,00878068218134899;
0,00885498854317378;
0,00885583728397665;
0,00888235190430525;
0,00884978449900061;
0,00869855042655954;
0,00849919818729117;
0,00824606054109898;
0,00801696394877396;
0,00778607893803059;
0,00750470238139351;
0,00715209113806629;
0,00672989977249538;
0,00632403737369364;
0,00600371437516267;
0,00578940636495544;
0,00562431721828767;
0,00539826741326519;
0,00503528142827848;
0,00452888435643992;
0,0039500589843999;
0,00339048258097424;
0,00289937707196308;
0,00246536425996209;
0,00203883401041222;
0,00158659202501021;
0,00112015086827658;
0,00068160436098096;
0,000302687968937624;
-2,78179852725253E-5;
-0,000353552033112029;
-0,000708734294130609;
-0,00107925245436788;
-0,00140312296726525;
-0,0016149789692495;
-0,00169984573149919;
-0,00171416282565486;
-0,00175418940321557;
-0,00189405704467326;
-0,00213941356083758;
-0,00242993102864372;
-0,00268684653078158;
-0,0028672531074159;
-0,00298467133218051;
-0,00308435925114546;
-0,00319808603111342;
-0,00331753465921129;
-0,00340673097079509;
-0,00343958832640532;
-0,00342736869235511;
-0,00341043573460802;
-0,00342051110110403;
-0,00344630188067452;
-0,00343425727146982;
-0,00332759200638031;
-0,00311424655378739;
-0,00284516895848839;
-0,00260635808678189;
-0,00246413338105722;
-0,00242411339407982;
-0,00243365001650745;
-0,00242378368045144;
-0,00235718474950218;
-0,00224624379618248;
-0,00213120924542037;
-0,00204035457672041;
-0,00196656102452974;
-0,0018783292178382;
-0,00175283649180596;
-0,00160005400654315;
-0,00145545950688077;
-0,00134684378274941;
-0,00126416412285014;
-0,00116027470509297;
-0,000985210136259266;
-0,000728230676759106;
-0,000433769595445607;
-0,000176864094527222;
-1,52062129509008E-5;
4,67079731896079E-5;
5,53552106736241E-5;
7,1432626981774E-5;
0,000127956940014407;
0,000214517767615048;
0,000296425779462182;
0,000349489149721172;
0,000380403349748312;
0,000417100244789226;
0,000479924385438433;
0,00056065667391978;
0,000628903329401849;
0,000660992060451513;
0,00066615213470984;
0,000685816987934955;
0,000763804223748422;
0,000909833559524426;
0,00108576167326468;
0,00122696278700658;
0,00128390865771035;
0,0012531748881536;
0,00117543031884188;
0,00110357284910989;
0,00106649351213206;
0,00105552008811193;
0,0010410175303346;
0,00100243081946949;
0,000945847605531339;
0,000895628567150073;
0,00086954636804748;
0,000860743441752839;
0,000843278158114679;
0,000797007540548429;
0,000730070706257543;
0,000678231482125931;
0,00067922809552436;
0,000741477020687676;
0,000832334574263338;
0,000896500325541766;
0,000891665766642785;
0,000815018999940897;
0,00070144329476252;
0,000596207493560825;
0,000523997405211977;
0,00047738975296863;
0,000431080622787599;
0,000367532395279489;
0,000291917071401134;
0,000224941470684355;
0,000181663815270757;
0,000156169252007976;
0,000126330848809315;
7,49734288004034E-5;
8,93824794290322E-6;
-4,15305507709952E-5;
-4,45742771059174E-5;
6,77810741810747E-6;
8,47379315299513E-5;
0,000142401886795543;
0,000143920277759822;
8,68505359979371E-5;
5,57383025042823E-7;
-7,6888933278661E-5;
-0,000124824171799867;
-0,000149650118769611;
-0,000172797788460659;
-0,000209131415178173;
-0,000254413964527474;
-0,000291378096669082;
-0,000307524905372619;
-0,00030795211804189;
-0,000311319638882637;
-0,000332105221123618;
-0,000364677685045904;
-0,000383865248475488;
-0,000363196294646663;
-0,000297005758866722;
-0,000208602625992428;
-0,0001371606161015;
-0,000112574372023957;
-0,000136904621324984;
-0,000185786567840611;
-0,000227675679997546;
-0,000245516229988874;
-0,000244700055925169;
-0,000243038977479772;
-0,000252872640659313;
-0,000270732262936903;
-0,000282400281616087;
-0,000277618830924456;
-0,000260643199682552;
-0,000246874293159874;
-0,000248233839360539;
-0,000260095201245109;
-0,000261806135887295;
-0,000231696524304708;
-0,000165185612428871;
-8,14046452317252E-5;
-1,24000142003153E-5;
1,74406525474195E-5;
6,49464962197466E-6;
-2,53240957467693E-5;
-5,23050201791218E-5;
-6,05770647586353E-5;
-5,45282635124873E-5;
-4,86051287548236E-5;
-5,27799395749884E-5;
-6,42044121101758E-5;
-7,13498863728326E-5;
-6,59163698956215E-5;
-5,13291360915486E-5;
-3,99781095000542E-5;
-4,14160300206223E-5;
-5,18705989590285E-5;
-5,47218563319083E-5;
-3,25866145021784E-5;
1,81840718934185E-5;
8,22716253788255E-5;
0,000134095240238487;
0,000154262821849646;
0,000141571479846066;
0,0001119473748306;
8,58678472200468E-5;
7,43560278202084E-5;
7,39429479419033E-5;
7,32205574146943E-5;
6,43522010097393E-5;
4,9632364323589E-5;
3,81759208738416E-5;
3,6524840191992E-5;
4,19965944802258E-5;
4,48971617053154E-5;
3,77892351284884E-5;
2,36673843297906E-5;
1,55253379928311E-5;
2,68934123477217E-5;
6,05728561202934E-5;
0,000104642009500418;
0,000139285439674323;
0,000149555756066032;
0,000134600473570526;
0,000106757431770964;
8,1805624029417E-5;
6,82019188241264E-5;
6,32732097447568E-5;
5,82959856079296E-5;
4,73105773743357E-5;
3,20903175571559E-5;
1,95728100087912E-5;
1,47084851643721E-5;
1,54500610549041E-5;
1,44755429919552E-5;
6,20158750456534E-6;
-7,09577728203972E-6;
-1,56706330436339E-5;
-9,43821677715003E-6;
1,36281424966254E-5;
0,00937803327721933;
0,0226984802475148;
0,0164477881004649;
0,00949603053144283;
0,0122109295383082;
0,00704862725915376;
0,00564668562556637;
0,0045904872960632;
0,000844319390857958;
0,00102806935502998;
-0,00120579221415463;
-0,0020162215731335;
-0,00283467512341104;
-0,00458033995441497;
-0,00491419659565349;
-0,00588803792406726;
-0,00598203973563505;
-0,00622853765468674;
-0,00703434791263442;
-0,00794435030009641;
-0,00934986512012467;
-0,0102259054481276;
-0,0104958601169963;
-0,0100928514129685;
-0,00920525977245944;
-0,00843952688047975;
-0,00784550617150066;
-0,00747397521330545;
-0,00706587983994685;
-0,00644059657724316;
-0,0057033542647027;
-0,00499094719426217;
-0,00448637983572812;
-0,00412219694295073;
-0,00369409878006131;
-0,00305893509373361;
-0,00226486980383943;
-0,00161152794303351;
-0,00139522303760147;
-0,00168747313197795;
-0,00223267241860817;
-0,0025817242088921;
-0,00239673760433956;
-0,0016501697368942;
-0,000624539150622272;
0,000310987309458029;
0,000955474450229288;
0,00136769205311957;
0,00175698256701192;
0,00226872972632514;
0,00286131463127886;
0,00336391810438529;
0,00365076721063034;
0,00377178892954666;
0,00391323279743666;
0,00422133212369121;
0,00464026451542315;
0,00491468274043995;
0,00477359181971097;
0,00415639749646421;
0,00330036376485003;
0,00260928622591734;
0,00239470043141747;
0,00268111333806804;
0,00321642259210932;
0,00367049688715011;
0,00386303970680306;
0,00385031484495815;
0,00382174288292456;
0,00391011254538658;
0,00407944503498083;
0,00417706308527255;
0,00409156815760512;
0,00386870429572316;
0,00367694328535966;
0,00364836567698148;
0,00373340723662636;
0,00370368757130233;
0,00331672305859186;
0,00251893615954326;
0,00152348505399993;
0,000692337667230772;
0,000304453615056163;
0,000381519333328508;
0,000697775834733503;
0,000957835643049222;
0,00100045335842991;
0,00087580531020141;
0,000752824159205959;
0,000749683294095775;
0,00083381371542674;
0,000868582734875173;
0,000754263428685534;
0,000531202330223744;
0,000348970890052198;
0,000324546848454101;
0,000413127996046764;
0,000410900291890192;
0,000101722178015436;
-0,000562443633401407;
-0,00139265463771691;
-0,00206805272693881;
-0,00234180378437676;
-0,00219557516006682;
-0,00183047003964518;
-0,00150908925432199;
-0,00137490997376029;
-0,00138403292253757;
-0,00138748603438006;
-0,00128135458491188;
-0,00109512331129689;
-0,000950205480618509;
-0,000935250853654424;
-0,00101509037585324;
-0,00105816286406634;
-0,000961793680620015;
-0,000766074615725946;
-0,000651192379633623;
-0,000807960331779746;
-0,00127889806445187;
-0,0112312747834362;
-0,0250124467816019;
-0,0188895865531458;
-0,0117177376054861;
-0,0140326838322229;
-0,00850995389948366;
-0,00690708544382784;
-0,00577303684449358;
-0,00194793587957418;
-0,00196507913134691;
0,000498326337886783;
0,00149976875436254;
0,00239659407026632;
0,0041372717527558;
0,00449258072871923;
0,00560002989979142;
0,00590631620516347;
0,0062933002442031;
0,00700843217664673;
0,00756107691822265;
0,00848137154914039;
0,00898001832581307;
0,00916152560638444;
0,00897218172477493;
0,00845245531741693;
0,00801590965615738;
0,00760710144679798;
0,007309020158655;
0,00697182790209426;
0,00649103435941707;
0,00595027169545626;
0,00539749552137049;
0,00495095262107808;
0,00456906941860876;
0,00414388969070763;
0,0036074235994902;
0,00297865970379921;
0,00242580619388723;
0,00210614538520869;
0,0020604899662937;
0,00215473931520294;
0,0021456803420014;
0,00185348369049831;
0,00126210114057172;
0,000525208421867266;
-0,000155883527893554;
-0,000671700275786929;
-0,00105278071779022;
-0,00141333967708985;
-0,00183249359667189;
-0,00228730149589604;
-0,00268396020029825;
-0,00295273471393269;
-0,00312094720774334;
-0,00329122358132495;
-0,0035446300601485;
-0,00385057314836988;
-0,00406735527154912;
-0,0040440757634101;
-0,00374647868140435;
-0,00330667816766306;
-0,00295062127148823;
-0,00285347715864164;
-0,00302993270377399;
-0,00333901563237081;
-0,00359519495172839;
-0,00369685234440973;
-0,00367588526916789;
-0,00363987917649127;
-0,00366469432077212;
-0,00373043725370014;
-0,00375055673513281;
-0,00366170253434343;
-0,00349020222858378;
-0,00333287644444952;
-0,00326605826468946;
-0,00326185274871936;
-0,00318911954254429;
-0,00290798558141714;
-0,00238727734193256;
-0,00175031236129926;
-0,00120734142311157;
-0,000921175743502104;
-0,000905305105869949;
-0,00102874210401362;
-0,00111921429290186;
-0,00108238635093114;
-0,000947721390581727;
-0,000814688035274599;
-0,000753227013027924;
-0,00074450184725767;
-0,000707979262080551;
-0,000584639186885093;
-0,000398398482365146;
-0,000238267911704173;
-0,000174196296828014;
-0,000179780346924489;
-0,000133322315284089;
9,48127381989598E-5;
0,000533863454402655;
0,00107060550155772;
0,00151182589158115;
0,0017082358059352;
0,00164822654385504;
0,0014532016752947;
0,0012824228297067;
0,00122328809844403;
0,00124926853709384;
0,00126951297766758;
0,00122038236120808;
0,0104532531284815;
0,0236720953090917;
0,0174154615105536;
0,0105325412853832;
0,013300788120367;
0,00810115076031082;
0,00658975088328349;
0,00546590715583355;
0,001819344481203;
0,002301311919485;
0,000459652821298501;
-4,59795006030757E-5;
-0,000786657036464494;
-0,00269023790674608;
-0,00330115970118836;
-0,00452152688157467;
-0,00475317341238445;
-0,00505937018690766;
-0,00593668957997129;
-0,0069891982214131;
-0,00858539368268892;
-0,00962200425642248;
-0,00996494865822277;
-0,00956653166576417;
-0,00869525227384307;
-0,00802327358446455;
-0,00758207660727236;
-0,00731931153469942;
-0,00686353335070451;
-0,00600683172490557;
-0,00494927444520906;
-0,00399112372262145;
-0,00344114159175648;
-0,0032400680287145;
-0,00307932473465112;
-0,00268128805377048;
-0,00202293310263183;
-0,00143023163861777;
-0,00127891219210531;
-0,00169370298580965;
-0,00240018310755574;
-0,00288156802708927;
-0,00275049951444263;
-0,00199715348881435;
-0,000974735078772541;
-0,000109460989354642;
0,000415493219590168;
0,000751315254161288;
0,00120704189900626;
0,00195140657159394;
-0,00647603530318219;
-0,0190217394273253;
-0,0124077650127464;
-0,00546258843632929;
-0,00826610982705526;
-0,00299689635834675;
-0,00127802466155274;
2,56480088536424E-5;
0,00360285796773801;
0,00272137373240584;
0,00398248996694026;
0,00401182492223726;
0,00459799485602346;
0,00666700584658476;
0,00756078108125017;
0,00894811880775476;
0,0091475924814787;
0,00933687726249357;
0,0102069717027224;
0,0114566997799612;
0,0133589542701133;
0,0145962707273586;
0,0148734856337762;
0,0141619580796101;
0,0129061558456774;
0,0119583244138802;
0,011380343333477;
0,0109750462484676;
0,0101763097170218;
0,00870526303497449;
0,00689325425013393;
0,00529127844693916;
0,00439902143494741;
0,00415513856934306;
0,00407295219764281;
0,00367011702967179;
0,00285096399220558;
0,00204223653961562;
0,00179011039217232;
0,00230169972460574;
0,00321761347690008;
0,00383213047523139;
0,00361577473616489;
0,00257472474301264;
0,00121581722809053;
0,000122605890732054;
-0,000495297611091176;
-0,000915864331607782;
-0,00161862173424512;
-0,00283502425633309;
-0,0043246423082043;
-0,00555316969169846;
-0,00611739087795695;
-0,00606244018569899;
-0,00582278026377988;
-0,00584280492758722;
-0,00619405111238687;
-0,00651157305078852;
-0,00630719995469575;
-0,00540235722252978;
-0,00412456244119941;
-0,003100689643387;
-0,00280864510035219;
-0,00324355711467883;
-0,00395887149963173;
-0,00443944349310506;
-0,00449916033625498;
-0,00438615012577928;
-0,00452509489594083;
-0,00512324486310427;
-0,00597133675298133;
-0,00660066895463758;
-0,0066589770798676;
-0,00618807405938094;
-0,00557212558868869;
-0,00520236618325618;
-0,00514060174953062;
-0,0050647320746356;
-0,00454521193857271;
-0,00342653357119007;
-0,00199906444034558;
-0,000816127279737729;
-0,000299121190618024;
-0,000443993398681769;
-0,000857922425614463;
-0,00108734541215565;
-0,000967254909441084;
-0,000713615308535072;
-0,000697575416806679;
-0,00110057547337257;
-0,00174024234730157;
-0,00220783080732908;
-0,00219646555154121;
-0,00174296513457233;
-0,00118189316268263;
-0,000852637844276236;
-0,000806445985656153;
-0,00076012050872729;
-0,000338075006965436;
0,000595031882539581;
0,00178535250385264;
0,00275024814075614;
0,00312277134825751;
0,00290712661722942;
0,00244633732196365;
0,00213661213486986;
0,00212358601627986;
0,00222194940458366;
0,00211123411664655;
0,00163466099772278;
0,000949799027761929;
0,000409569717649628;
0,000278628018989879;
0,000525008495831122;
0,000860582630374048;
0,000994272921085518;
0,000884354478075485;
0,000777252257284719;
0,000997793550232631;
0,00166227828115836;
0,00255084709706904;
0,00324670636188855;
0,00343344414777105;
0,00311493869880683;
0,00258714556609685;
0,00219208861111884;
0,00205661578420823;
0,00202327189078318;
0,00181813796610241;
0,00130681560352209;
0,000623286705528301;
6,80859326566122E-5;
-0,000133859894813483;
-1,05545723483723E-5;
0,000192342182847413;
0,000227830219349719;
6,21863224837993E-5;
-9,30766775193935E-5;
3,91237889021347E-5;
0,000556919309643786;
0,00127154237204077;
0,0018268124233496;
0,00195267068529917;
0,0016521522280621;
0,00117703557959048;
0,000818564713294484;
0,000685572409275552;
0,000645763037021461;
0,000467729139281452;
3,7353097261576E-5;
-0,00053344316164514;
-0,000992679840182095;
-0,00115227221186131;
-0,00103681355042906;
-0,00085314982751191;
-0,000808080374129234;
-0,00092838866851438;
-0,00103506834349564;
-0,000895209969764255;
-0,000427486286116462;
0,000207935991171696;
0,0007106290205844;
0,000853122357567465;
0,000637600791462455;
0,000275140522437129;
1,02057602498829E-5;
-6,50650380945566E-5;
-6,00143204002972E-5;
-0,000167120602201021;
-0,000481862592148229;
0,00842105644043918;
0,0213787936179133;
0,0150297746558536;
0,00822332060110823;
0,0111467291664928;
0,00607447493111997;
0,00461746419565411;
0,0035123808596927;
-7,74404165252958E-5;
0,000538413760472644;
-0,00112266115924642;
-0,00147389835823455;
-0,00213867614519642;
-0,00403309646465434;
-0,00463879826875281;
-0,00580169396302848;
-0,00592660780610397;
-0,0061411441466343;
-0,00701611446813945;
-0,00817607565854434;
-0,00993214626387174;
-0,0110812475336095;
-0,0114147332411112;
-0,0108835288398313;
-0,00982123782719327;
-0,00897894999311223;
-0,00842545876027899;
-0,00808771909463344;
-0,00754602406847911;
-0,00656414975418497;
-0,00535783815680662;
-0,00426992610383832;
-0,00363854942750895;
-0,00339406474991825;
-0,00318801916633638;
-0,00271124104416206;
-0,00194969598425866;
-0,00127688097115183;
-0,00111837077691894;
-0,00160921143282669;
-0,0117653606616645;
-0,0256287154910174;
-0,019243170030784;
-0,0114668633934753;
-0,0130545240225652;
-0,00693139905119489;
-0,0049419978115835;
-0,00351586866542143;
0,000711878474082328;
0,00130472919717228;
0,00448153764498314;
0,00607275617990726;
0,00726551110652292;
0,00902882068275877;
0,00931727563148276;
0,0104551781530469;
0,0109187794872477;
0,0114370293966669;
0,0120544571413613;
0,0122075764199929;
0,0125642739209715;
0,0125963028584443;
0,0126064496761541;
0,0125394635722771;
0,0122523709543455;
0,0119471653922486;
0,0114911813494885;
0,0110669178916264;
0,0106959311473774;
0,0103580243561272;
0,0193881886789634;
0,0322791961583083;
0,0254960968644496;
0,0178874935709965;
0,0198572462181709;
0,0139346414314461;
0,0117902514769483;
0,010048774565193;
0,00566803266307684;
0,00525455551176334;
0,00244435781725385;
0,00105216837399623;
-0,000368487341412149;
-0,00275160164676463;
-0,00375316634601093;
-0,00539905396557929;
-0,00613042160666308;
-0,00693881743534535;
-0,0082126456368026;
-0,00950679002878808;
-0,0112477466399842;
-0,0124542289455317;
-0,0130815238581557;
-0,013072531478466;
-0,0126006904956962;
-0,0122407117843142;
-0,0120050851583449;
-0,0119132821480853;
-0,011692175127938;
-0,0111706261351365;
-0,0198196607624668;
-0,0324495977342195;
-0,0257646281715293;
-0,0185813641354688;
-0,0210372459762643;
-0,0153958296812917;
-0,0132973084846894;
-0,0116060425710088;
-0,00759013213843041;
-0,00796425763585627;
-0,00614891195717413;
-0,00555296082275154;
-0,00441993156287602;
-0,00181571656821822;
-0,000370155740877198;
0,00160667447416199;
0,00242433008938125;
0,00321885211401443;
0,00464127010964596;
0,00638028302649808;
0,00873963723578291;
0,010453265180638;
0,0112620195619394;
0,0111368073794162;
0,0104882300043171;
0,0101272437061659;
0,0100923534778875;
0,0101883005630097;
0,00986474890948226;
0,00885400673682069;
0,00748574004693355;
0,00630228360088411;
0,00579970833616064;
0,00592366500737936;
0,00619829612299668;
0,00614354713977713;
0,00565101395177614;
0,00512588983046895;
0,00509872597867334;
0,00577877479143286;
0,00682664971126076;
0,00756304515337419;
0,00747694211376773;
0,00657721140164378;
0,00535971281768797;
0,00439148653982411;
0,00386772325610942;
0,00350175959136195;
0,00281176408872981;
0,00157062908228547;
3,00658864017253E-5;
-0,00125932813448511;
-0,00187885072043111;
-0,00186662989547407;
-0,00166292865221194;
-0,00172764408218508;
-0,00214821721653853;
-0,00256682347430811;
-0,00249104049650574;
-0,00173182661417547;
-0,000607778500999697;
0,00025801366232129;
0,0003890711414687;
-0,000205876953901474;
-0,00107379105628628;
-0,00169676485487409;
-0,00189702561164463;
-0,0019419504110365;
-0,00227523464287156;
-0,003107299357785;
0,0051248844795645;
0,0175547940601157;
0,0110481972287928;
0,00443933896202495;
0,00768149698134239;
0,00279635546807631;
0,00133376224407322;
0,000206874214438849;
-0,00316457456537132;
-0,00198483277474894;
-0,00289476429486421;
-0,00262800291266517;
-0,00305487584534213;
-0,00508526879942926;
-0,00596205416698997;
-0,00726153373340656;
-0,0073044611454012;
-0,00737458668994099;
-0,00829035742616686;
-0,00978950765779391;
-0,0120476587077662;
-0,0135705529085737;
-0,0139264720598721;
-0,0130814123387809;
-0,0115986547689172;
-0,0104769111088117;
-0,0098443502274758;
-0,00945467318946755;
-0,00863701992029906;
-0,00705215008900985;
-0,00507056299421513;
-0,00334797081064052;
-0,00246318573923886;
-0,0023398525325933;
-0,00239600325367894;
-0,00205913913246048;
-0,00123288719914769;
-0,000442301004917107;
-0,000353345623321479;
-0,00121050841861242;
-0,00256407889732181;
-0,00354331894522658;
-0,00349148270080423;
-0,00241044499648018;
-0,000918650003109428;
0,00026383559215065;
0,000867088093640348;
0,00121724532086986;
0,00189321892991058;
0,00318249401530556;
0,00480567543566612;
0,00612731381993515;
0,00666764934986145;
0,00648504817922331;
0,00610409064666456;
0,00605548066491907;
0,00641331683331882;
0,00672173821407991;
0,00638044709471604;
0,00517485419168273;
0,0035152485471728;
0,00218089206255703;
0,0017670019330904;
0,00227175497716013;
0,00314435150437872;
0,00374318330195228;
0,00382746884366982;
0,00369179600690819;
0,00385414652578307;
0,00457322227689735;
0,00560140371412276;
0,00637320989427867;
0,00646302852663392;
0,00592417415634719;
0,00522527298989714;
0,00483940804610571;
0,00483249198821686;
0,00479905847588434;
0,00420552770568589;
0,00286210495359408;
0,00113450115223117;
-0,000284240110057137;
-0,000865313128576306;
-0,000610673695827851;
-9,56798352021626E-6;
0,000368373318559376;
0,000309147766628988;
7,32468847132954E-5;
0,000118855977159202;
0,000674478222551169;
0,00152064079381908;
0,00215706172085749;
0,00220744129298179;
0,00171867210960534;
0,001104012489979;
0,000779977274901397;
0,000803352716421818;
0,000815295934341253;
0,000344653203382906;
-0,000776078928592427;
-0,0115582700623248;
-0,0260214299202616;
-0,0201847147367545;
-0,0129215179232723;
-0,0150217593136486;
-0,00943171675066938;
-0,00797180452815537;
-0,00700166991458449;
-0,00309081987361986;
-0,00266383188439931;
0,000435171856112948;
0,00193152217184782;
0,00293052501210202;
0,00439066619604509;
0,00432863677479388;
0,00515549575156769;
0,00540152063672463;
0,00579148715335786;
0,00632739837007275;
0,0064093121269333;
0,00670342001960769;
0,00670634426740887;
0,00673858047755687;
0,00672998118772554;
0,00649908276741223;
0,006223077722923;
0,00579108135787385;
0,00544997713515549;
0,00528452184943501;
0,00528431273292353;
0,00538804477268433;
0,00535568932450599;
0,00508719021115978;
0,00454971660055777;
0,00384803302833435;
0,00315035790769149;
0,00254727743953649;
0,00207061079563634;
0,00166532363015754;
0,00127800108037444;
0,000892399121998627;
0,000512383073371973;
0,000144572586899625;
-0,00024127780160576;
-0,000682862812117041;
-0,00118265845864794;
-0,001679225553913;
-0,00206248029320679;
-0,00224522101736295;
-0,00222571897399562;
-0,00210511986605582;
-0,00203611944039547;
-0,00213555865535294;
-0,00242289366065388;
-0,00281858491648162;
-0,003201869374433;
-0,00348133784988726;
-0,00363211512604965;
-0,00368456027656615;
-0,00368442259334084;
-0,00366267517815309;
-0,00363406398708791;
-0,00361453398726294;
-0,00363070613834262;
-0,00370446036201322;
-0,00382367983343519;
-0,00392775405004132;
-0,00392935332021821;
-0,00376522737963488;
-0,00344255302950179;
-0,00304619657942858;
-0,00269775025821154;
-0,0024911346032613;
-0,00244562393295801;
-0,00250406227892616;
-0,00257263779049171;
-0,00257254222924898;
-0,00247139732463827;
-0,00228199045352744;
-0,0020401210871644;
-0,00178346013164063;
-0,00154419098172986;
-0,00135104628366366;
-0,00122744267754245;
-0,00117908425786843;
-0,00117925410771247;
-0,00116822983078506;
-0,00107596803017416;
-0,000859261811883046;
-0,000530636291491036;
-0,000158418246255702;
0,00016479969546315;
0,000367470286035772;
0,000431843308034121;
0,000396955301168207;
0,000333912298931226;
0,000310898344078985;
0,000367288715689151;
0,000506099729831555;
0,000701369342287005;
0,000911206493284984;
0,00109005121405371;
0,00119960366780204;
0,00122005329470603;
0,00115989212145391;
0,00105815874794906;
0,000973401863191295;
0,000960564045515703;
0,00104574804448136;
0,00121238557419862;
0,00140716843728083;
0,00156325724947801;
0,00162896150954402;
0,00158810304829348;
0,00146398021390669;
0,00130760495559812;
0,00117718243093248;
0,00111724265651425;
0,00114382437332142;
0,00123938431439796;
0,00135887651348159;
0,00144593631994486;
0,00145450692299953;
0,00136775343370515;
0,00120558336777757;
0,00101642987252398;
0,000856647706869695;
0,000767365630942682;
0,000759596410018676;
0,000813218586370367;
0,000887851496523623;
0,000938764527409024;
0,000931222586277258;
0,000850182588871519;
0,000705012872371765;
0,000528744888839492;
0,000369968915298721;
0,000276475754672558;
0,000274576670075637;
0,00035364443371325;
0,000466263836780462;
0,000547461460945843;
0,000544975363821087;
0,000444335909066513;
0,000274366932056637;
9,03357289489199E-5;
-5,43638283317313E-5;
-0,00013105614399194;
-0,000141804012059025;
-0,000109685405137239;
-6,3931997582746E-5;
-3,03554491908418E-5;
-2,92084462240623E-5;
-7,45620759401382E-5;
-0,000169027720177884;
-0,000295275772528666;
-0,000413625568305553;
-0,000474385997876326;
-0,000443142535309826;
-0,000324675175949362;
-0,000167780526619627;
-4,37767408069246E-5;
-9,43677599584113E-6;
-7,71025337505092E-5;
-0,000210946537418949;
-0,000350802030214016;
-0,000446529953945097;
-0,000480286688970603;
-0,000465037120136668;
-0,000425980154633441;
-0,000382560618453699;
-0,00034433334284246;
-0,000319073578857179;
-0,000319764247938994;
-0,000358932601632555;
-0,000432567870889628;
-0,000508941575333868;
-0,00053740128138861;
-0,000477146006299972;
-0,000327882590076811;
0,0091946861071377;
0,022644495102439;
0,0164457658142751;
0,00945885475048831;
0,0120836243343549;
0,00682812966690496;
0,0053705739899093;
0,00430696308220898;
0,00058616079949678;
0,000805870979306477;
-0,00139359523877887;
-0,00217189013873463;
-0,00296110434465404;
-0,00469069464048481;
-0,00503693693587353;
-0,0060547591894411;
-0,00620126186095737;
-0,00646483870448979;
-0,00721369762506154;
-0,00798942629408112;
-0,0185590974799583;
-0,0325947133594852;
-0,0265570065977613;
-0,0192577706088101;
-0,0212049926392318;
-0,0153921318817794;
-0,013461189594833;
-0,0120480666746866;
-0,00788887617017989;
-0,00745148934468473;
-0,00449667513653704;
-0,00298469808113389;
-0,00165403903781076;
0,000470916511712419;
0,00122671197716417;
0,00279059931109251;
0,00361363393442196;
0,00448125801148855;
0,00555568614972299;
0,00631908207602844;
0,00736860007321719;
0,00804581535314331;
0,00854757277392957;
0,00882768771277067;
0,00884246013501449;
0,0088984682159864;
0,00888628500205645;
0,00890925395428602;
0,00888156534370658;
0,00873936440626895;
0,00854932798605443;
0,00830420880653459;
0,00808141977426054;
0,00785362224266021;
0,00756929672209937;
0,00720654826018471;
0,00677117148935973;
0,00635858015354277;
0,00604755671828806;
0,0058605919480338;
0,00573150225048161;
0,00553340620475198;
0,00517648309990165;
0,00465237018639655;
0,00404310209010097;
0,00345613721508898;
0,00294999632474034;
0,00251062479487094;
0,00207812881304008;
0,00161167512609815;
0,00112503508917561;
0,00067042458543204;
0,000288048792008602;
-3,49356969492146E-5;
-0,000353266856298601;
-0,000711831942586756;
-0,00109581379306676;
-0,0014292015520045;
-0,00162933713888439;
-0,00167549564770067;
-0,00163732366696077;
-0,00163626192416064;
-0,00176663850386733;
-0,00203526574429541;
-0,00236395256524132;
-0,00265126443157241;
-0,00284397552813042;
-0,00296403108788975;
-0,00307456152481659;
-0,00321770466489308;
-0,00337780328280711;
-0,00349912284415566;
-0,00353979772197396;
-0,00351278780242548;
-0,00347633368259126;
-0,00348064394552825;
-0,00351661760474339;
-0,00351310197877814;
-0,00338981202162998;
-0,00312589373172843;
-0,00278850826166423;
-0,00249557466460954;
-0,00233864280610538;
-0,00232388366085408;
-0,0023753487681611;
-0,002395967099571;
-0,00233738235876762;
-0,00222509773045157;
-0,00212332996619106;
-0,0020728607794068;
-0,00205508610655416;
-0,00201096008088032;
-0,00189598078505415;
-0,00172184283022716;
-0,00154730660901066;
-0,00142492420643852;
-0,00134923649661678;
-0,00125275471237319;
-0,00105714836125675;
-0,000740450764646431;
0,00896785393825528;
0,0225850617965207;
0,0165082510168536;
0,00960353153086687;
0,0123034816896996;
0,00714560703726348;
0,00580578761863839;
0,00484414222270936;
0,00116791400009085;
0,00136299794298044;
-0,000897946334847293;
-0,00171727138635966;
-0,00248330536184672;
-0,00412366238443183;
-0,00435193587423367;
-0,00526928100715097;
-0,00535479448736815;
-0,00558390979126893;
-0,00629463707626175;
-0,00701036690217522;
-0,017507806305615;
-0,031486653329245;
-0,0254279631232806;
-0,0181382057237602;
-0,0200993555090895;
-0,0142821513013146;
-0,0123314315543579;
-0,0109123441127259;
-0,00679410793378215;
-0,00645324616228245;
-0,00362361435308046;
-0,00221868227044204;
-0,000941164176036196;
0,00118658244364673;
0,0019715200372519;
0,00355371482649255;
0,00436583072014922;
0,00520253716812295;
0,00624936236725702;
0,00700317697951885;
0,00805479068580544;
0,0087256467129795;
0,00919794762073014;
0,00943007180620007;
0,0093980214301231;
0,00942481001311262;
0,00939746368007711;
0,00939574409535942;
0,00930803200323788;
0,00906428540422677;
0,00875285951220189;
0,00840354248564781;
0,00812202225390286;
0,00788284232437965;
0,00761154541744533;
0,00725690786488549;
0,00680937817621703;
0,0063701116151627;
0,00603488747747838;
0,00583756369214324;
0,00570826509452332;
0,00550642280590857;
0,0051323763362688;
0,00458147250885487;
0,00394974134680937;
0,00335544957520573;
0,00285291155415279;
0,00240947003392431;
0,00194581171013625;
0,00141699044477353;
0,000853693420023878;
0,000336410276867996;
-7,31054976519929E-5;
-0,00038600056484576;
-0,000674082857512129;
-0,00100458082386961;
-0,00137525591706028;
-0,00170735208076579;
-0,00190673601400855;
-0,00194425637590712;
-0,00189094934572479;
-0,00187631365848772;
-0,00200030935109539;
-0,00226675508244376;
-0,00258838691438021;
-0,00285776797424788;
-0,0030263055537919;
-0,00313004125907456;
-0,00324582084443124;
-0,00341802060764868;
-0,00361821772331596;
-0,00377006492677354;
-0,00381600792964196;
-0,00376740540980603;
-0,00369432269017175;
-0,0036630485564409;
-0,00367447234367024;
-0,00365715499340659;
-0,00352403693279919;
-0,00324833535538568;
-0,00289656830726636;
-0,00258979766001653;
-0,00242151481803373;
-0,0023954542238753;
-0,00243076400907382;
-0,00242840218526388;
-0,00234486063389486;
-0,00221568993393803;
-0,00211377738683678;
-0,00208047216602184;
-0,00208799720957004;
-0,00206334359632365;
-0,00195139608884387;
-0,00176229826560449;
-0,00156202283083346;
-0,00141367966385764;
-0,00131944267594327;
-0,00121355710400801;
-0,00101491372691092;
-0,000697760800031179;
-0,00032265121110894;
-6,71048889335879E-7;
0,0001826107171227;
0,000224623415693398;
0,000200722403768924;
0,000202452972121267;
0,000269353915767379;
0,000367671181129882;
0,000429679072272914;
0,00041791256936455;
0,000359893184652861;
0,000325418522521588;
0,000367355743341913;
0,000477257826281945;
0,000594014049528018;
0,000658509826345006;
0,000667897081382324;
0,000682542629134807;
0,000777676557830804;
0,000978046673402904;
0,00122915229731608;
0,00142999948034942;
0,00150297615388036;
0,00144656800412796;
0,00133044860553054;
0,00123853986775064;
0,00120642996322234;
0,00120226677830193;
0,00116350049059505;
0,00105630376207099;
0,000907404357143395;
0,000782699389353598;
0,000732187704710193;
0,00074872304800601;
0,000775885811341381;
0,000758477641251198;
0,000692827345923459;
0,000633606709605601;
0,000649716649918214;
0,000764379677886879;
0,00092861392783187;
0,00105098871590774;
0,0010613214795755;
0,000958646511095587;
0,000806516911889162;
0,000680906581811307;
0,000613232880708844;
0,000573349439711702;
0,000503598117150009;
0,000373343519251829;
0,000207927213244053;
6,87036463275017E-5;
2,23464854427226E-6;
2,26351138134908E-6;
1,68188185607747E-5;
-5,50844366898342E-6;
-6,93031655549516E-5;
-0,000125716619232097;
-0,00011239273251989;
-7,95748411849965E-6;
0,000143711746819548;
0,000260298384991679;
0,00027865071970126;
0,000198085451972606;
7,59377664380018E-5;
-1,97292360006417E-5;
-6,15874274960731E-5;
-7,8050077017275E-5;
-0,000121966367427751;
-0,000220964811053751;
-0,000351325101871675;
-0,000456461510398516;
-0,000493425995262592;
-0,0004676903208188;
-0,000426790682544333;
-0,000418251809366007;
-0,000447378990920973;
-0,000470915070242534;
-0,000432882913472667;
-0,000313752303836172;
0,00918096216168023;
0,0226072188343082;
0,0163925476827881;
0,0094071912096745;
0,012061083885949;
0,00685928267840147;
0,00545675606596325;
0,00441439036842081;
0,000654852229340359;
0,000777709898155205;
-0,00154376331886554;
-0,00242166359237837;
-0,00325158794999238;
-0,00495586665386426;
-0,00523327992662471;
-0,00617515216659677;
-0,00626902989683328;
-0,00651608086798505;
-0,0072802431730956;
-0,00808993564805697;
-0,00936433963776992;
-0,0101331201197651;
-0,0103617660021686;
-0,00998314311216881;
-0,0091462716216714;
-0,00841211677337486;
-0,00781451518108736;
-0,00742726094098455;
-0,00703014246371581;
-0,00646135799392949;
-0,00580652164671843;
-0,00515850979101312;
-0,00466670794324239;
-0,00426645816148526;
-0,00378863305268959;
-0,00312697169447217;
-0,0023366779314381;
-0,00168857656445437;
-0,00143920348310626;
-0,00164468635256368;
-0,00207503510629265;
-0,00233155934751907;
-0,00211516717014029;
-0,00139797145022958;
-0,000426071418534224;
0,000473321241690741;
0,00111390583825715;
0,00153301604089498;
0,00190404264520429;
0,00235507280827315;
0,00286282117031301;
0,00329728471862013;
0,00356394364703252;
0,00371025162714429;
0,003889984301817;
0,00421521714614656;
0,00462344968339042;
0,00488571838738109;
0,00476761722001283;
0,00422280518559794;
0,00346516017570737;
0,00285233070126884;
0,00266035064701403;
0,00291411094049101;
0,00339491152685651;
0,00381099471700285;
0,0039953032375093;
0,00398427039208527;
0,003934275849905;
0,0039623081025031;
0,00404935414857767;
0,00408033787703878;
0,00397265528745656;
0,00376985879107344;
0,00361064879186534;
0,00359570127004199;
0,00366914571972523;
0,00362655454068938;
0,0032588103504926;
0,002525408350098;
0,00161830308255289;
0,000857525030372305;
0,000489781699614346;
0,000537147477949868;
0,00080423533931993;
0,00103045931899607;
0,00106643682845856;
0,00094412822886134;
0,000802323122603603;
0,000744859327309809;
0,00075472836203481;
0,000729651279927615;
0,000596211551658195;
0,000392823530305023;
0,000241972277367846;
0,000231981665200749;
0,000312137660176128;
0,000300191168100182;
1,01823159889656E-5;
-0,000594033171592988;
-0,0106760187778562;
-0,0245821535927898;
-0,0185785220372811;
-0,0115170483493378;
-0,0139300261148872;
-0,00849329042077563;
-0,00697117121148808;
-0,00592373626120565;
-0,00219994644656772;
-0,00233299217206272;
1,06303881834163E-5;
0,000904608468229806;
0,00171913921692091;
0,00340540117282843;
0,00372625486059989;
0,00480627713910037;
0,00508169487380064;
0,00543079577002368;
0,00610371649228954;
