0,00933327355740035;
0,022629228827157;
0,0163720888559677;
0,00943249682775917;
0,012168913721368;
0,00702574248142589;
0,00563433952820603;
0,0045821661450616;
0,000840015948151792;
0,00103215757507463;
-0,00119030948997162;
-0,00199150432168649;
-0,00280654724687982;
-0,00455313455075255;
-0,0048868970431733;
-0,00585553996697709;
-0,00594082977459891;
-0,00618205057037759;
-0,00699318084476909;
-0,00792049897200181;
-0,00934896911790239;
-0,0102432223063057;
-0,010518949062873;
-0,0101089486144921;
-0,009208013774077;
-0,0084306172633352;
-0,00783080046494154;
-0,00745789178369545;
-0,00704843563770684;
-0,00641888362922779;
-0,00567539848605707;
-0,00495819927224951;
-0,00445268285175792;
-0,00409038784130043;
-0,00366352067258593;
-0,00302630333895035;
-0,00222794560269688;
-0,00157250246666666;
-0,00136077244113413;
-0,0016650667119748;
-0,00222573909459641;
-0,0025872505137424;
-0,0024070391506449;
-0,00165745845746312;
-0,000624970050243026;
0,000316441366289629;
0,000963395843637271;
0,00137555831905144;
0,00176484031732611;
0,00227828219169546;
0,00287370368871454;
0,00337835878132694;
0,00366517512465552;
0,00378465968914064;
0,00392494558316604;
0,00423362732960953;
0,00465430161644342;
0,00492935815119659;
0,004785618687131;
0,00416221045685978;
0,00329843692945207;
0,00260114006306863;
0,00238391856904531;
0,00267119172154968;
0,00320903273484196;
0,00366524776508078;
0,0038585871590893;
0,00384573063101162;
0,00381709412822633;
0,00390603439200044;
0,00407632847269878;
0,00417465189786107;
0,00408923898022469;
0,00386604743302317;
0,0036740560101206;
0,00364562490593105;
0,00373100515016784;
0,00370139944745562;
0,00331409990294101;
0,00251568658695893;
0,00151965366650822;
0,000688128407701994;
0,000299919539878594;
0,000376465315408438;
0,000691981329897473;
0,000951354257043263;
0,000993649400583827;
0,000869053561418804;
0,000746164432419059;
0,000742804948109747;
0,000826432048164106;
0,000860847891452196;
0,00074674612232135;
0,000524379298961853;
0,000342667853897777;
0,000317961008460469;
0,000405607462319064;
0,000402929783861457;
9,52082909441469E-5;
-0,000565070412800355;
-0,0107234897704273;
-0,0246908773901769;
-0,0187062508282521;
-0,0116222963290236;
-0,0139972210780892;
-0,00853594146474136;
-0,00701196248117057;
-0,00596908033470955;
-0,00223041870737798;
-0,00231738081896675;
8,9627936253974E-5;
0,00103448739850189;
0,00186461349558323;
0,00353251606606343;
0,00382388594897524;
0,00488785172873482;
0,00516656095461664;
0,00552146260541711;
0,00617838774213802;
0,00664186361298334;
0,00746080476434432;
0,00787779303518544;
0,00802177676855362;
0,00784067085733692;
0,00735470166590927;
0,00695108759558123;
0,00655993156511878;
0,0062684359375702;
0,00594142470360958;
0,00548456919737065;
0,0049783860158977;
0,00445858178573042;
0,00403442556485207;
0,00366767378695253;
0,00326325826091112;
0,00276317846491938;
0,00218222080657678;
0,00167050337904909;
0,00136621360818738;
0,00130583368030106;
0,00137164936483024;
0,00134829669078519;
0,0010772511245182;
0,000543787594918764;
-0,000116208558574877;
-0,000724509808262608;
-0,00118428750684004;
-0,00152239343040739;
-0,00184022644455382;
-0,00220801519474255;
-0,00260550255434911;
-0,00294950843433291;
-0,00317804527028972;
-0,00331545289491532;
-0,00345306331737855;
-0,00366318562446221;
-0,00391881019467362;
-0,00409386884250969;
-0,00405392255985732;
-0,00376832652930685;
-0,00335482663833037;
-0,0030150888173503;
-0,00290571330641685;
-0,0030401528153821;
-0,00329274463962372;
-0,00349781948749645;
-0,00356456404155452;
-0,00352155060623258;
-0,00346516034003325;
-0,00346345409075281;
-0,00349872794992217;
-0,00349345728816219;
-0,0033908276727051;
-0,00321446045562258;
-0,00305133329324281;
-0,00297014419676557;
-0,00294598726911078;
-0,00286105060834577;
-0,00258947545325415;
-0,00210304943009223;
-0,00151263215498733;
-0,00100755241825804;
-0,000734640059993528;
-0,000706279138519142;
-0,000804536920365487;
-0,000874068493902903;
-0,000829702520823458;
-0,000697989739030227;
-0,000568772206952261;
-0,000505286048804465;
-0,000490513738395257;
-0,000451560102189815;
-0,000334913641474325;
-0,0001621394098692;
-1,3848327163834E-5;
4,65083320891816E-5;
4,27968647762785E-5;
8,54153461736499E-5;
0,000292145054490343;
0,000689759519919716;
0,00117562247695982;
0,00157423864683959;
0,00174981472190988;
0,00169163677391545;
0,00151004403382053;
0,00134998715774004;
0,00129112390975999;
0,00130936967909267;
0,00132196200511186;
0,00127087775730309;
0,00117250445971377;
0,00109494960577876;
0,00108828034657466;
0,00113300424570909;
0,00115499983083691;
0,00109606731555074;
0,000978758929686608;
0,000905536698884984;
0,000985551633789428;
0,00124379059383752;
0,00158575369252849;
0,00184979476995706;
0,00191101877852983;
0,0017599329741162;
0,00149857523698875;
0,0012607379471767;
0,00111994035664274;
0,00105412657793566;
0,000987258692994282;
0,000866104940569624;
0,000705868606587957;
0,000569241498707156;
0,000502259588954231;
0,000487022012294285;
0,000455483771419137;
0,000354253925779314;
0,000204033320601356;
9,87427643951534E-5;
0,000138326117041425;
0,000345519349636291;
0,000633612173792514;
0,000854503872731018;
0,000893846919902108;
0,000742935751948409;
0,000495027219881083;
0,000272301993698108;
0,000141760916063178;
8,30648026737754E-5;
2,66170986404814E-5;
-7,63076467085062E-5;
-0,000211976119886213;
-0,00032337707785282;
-0,000368736468883458;
-0,000364568828222197;
-0,000373038905389852;
-0,000442916301450328;
-0,000555509023551484;
-0,000625544303459541;
-0,000562350161575822;
-0,000345504839345235;
-5,40322029282524E-5;
0,000177368360826046;
0,000244761489797026;
0,000140167541697448;
-5,18984401816516E-5;
-0,000220766826439955;
-0,000305869085134309;
-0,000325806815998468;
-0,000343761953714001;
-0,000403958351953713;
-0,000494057216975768;
-0,000562581040740155;
-0,000571870643796083;
-0,00053697573162357;
-0,000514168218496815;
-0,000547567307930507;
-0,000620349794610781;
-0,000655623550552813;
-0,000571688484026256;
-0,000350248109520722;
-6,26399683849234E-5;
0,000169710261244419;
0,000253191501287696;
0,000180652644329752;
2,81780265606012E-5;
-0,00010468422961675;
-0,000163506856948816;
-0,000165047719507289;
-0,000166087001901465;
-0,000206325002360095;
-0,000274654531172667;
-0,000324860869148098;
-0,000323160433691126;
-0,000283047613528118;
-0,000254940246282719;
-0,00027832377819096;
-0,000338082900108056;
-0,000365354274456667;
-0,000287031594758087;
-8,6766287070928E-5;
0,000171660088254385;
0,000379771121248998;
0,000454025404041709;
0,000388136291225549;
0,000250095188303169;
0,000128764508766151;
7,27056567833705E-5;
6,70047356014056E-5;
6,11140183261498E-5;
1,97403351927142E-5;
-4,7159255841411E-5;
-9,84058391966007E-5;
-0,000103913833631871;
-7,56499250787907E-5;
-5,83772053743013E-5;
-8,71114693158335E-5;
-0,000148370010867466;
-0,000180992742717183;
-0,000120112287756904;
4,87625832433384E-5;
0,000269102685653479;
0,000444838476995708;
0,000502057885811795;
0,000435276416933656;
0,000304713661763298;
0,000188988050342601;
0,000131034296440545;
0,000117681898350952;
0,000104312355111933;
5,98099639166109E-5;
-6,9991911109223E-6;
-5,97722177674064E-5;
-7,19797660202037E-5;
-5,41633531001635E-5;
-4,5733870418149E-5;
-7,74898860247553E-5;
-0,00013754183330208;
-0,00017209329575997;
-0,000124141259608932;
1,90122309667033E-5;
0,000207696352807037;
0,000357584043404447;
0,000403857813710067;
0,000341748146190418;
0,000224063420523423;
0,000119677781274132;
6,6165053690221E-5;
5,19757502457131E-5;
3,80711048135523E-5;
-2,74664420707588E-6;
-6,27541595233752E-5;
-0,000110209258914426;
-0,000121968403077947;
-0,000107251780713183;
-0,000100443714398939;
-0,000128390466605464;
-0,00018073024237981;
-0,000210628825243393;
-0,000168508379349371;
-4,33714448476917E-5;
0,000121555431159383;
0,000252978641658335;
0,000294614933288832;
0,00024234660170442;
0,000142000636626247;
5,32871005120226E-5;
8,74015201699654E-6;
-1,67291652941804E-6;
-1,17620331293323E-5;
-4,50579564671933E-5;
-9,48772518710797E-5;
-0,000133791684546477;
-0,000141828822076223;
-0,000126970526244124;
-0,00011889670107293;
-0,000140757074055247;
-0,000183617941078291;
-0,000207148356116484;
-0,000168699357860957;
-5,88511339670374E-5;
8,5194515229303E-5;
0,000200444643166541;
0,000238578004434049;
0,000196086195149473;
0,000112294372999993;
3,83842389665081E-5;
2,20832422642678E-6;
-4,8431541543092E-6;
-1,17059675360332E-5;
-3,84929265362701E-5;
-7,94796398933771E-5;
-0,000111237238092959;
-0,000116727740892178;
-0,00010277190488156;
-9,46734674714814E-5;
-0,000112144407230995;
-0,00014756713223852;
-0,000166629021476398;
-0,00013308883569328;
-3,89742894816488E-5;
8,41031122230069E-5;
0,000182692302310579;
0,000215843252186059;
0,000180615275650427;
0,000110329052399732;
4,82941541740062E-5;
1,80486063643368E-5;
1,23054093341301E-5;
6,63411815514771E-6;
-1,59198356228857E-5;
-5,05118393036828E-5;
-7,73941339879605E-5;
-8,22261789381107E-5;
-7,07530470188212E-5;
-6,4244581844594E-5;
-7,92457403996109E-5;
-0,00010934698695629;
-0,000125766282123167;
-9,81470228139647E-5;
-1,98408104499696E-5;
8,26804126725839E-5;
0,000164728373222985;
0,000192117503820491;
0,000162426302649905;
0,000103468362668818;
5,13380985118186E-5;
2,56222160308994E-5;
2,02469323510252E-5;
1,49068055294467E-5;
-4,46375818474537E-6;
-3,38269334250368E-5;
-5,68025250474989E-5;
-6,15161501912612E-5;
-5,27302471072944E-5;
-4,80313256579307E-5;
-6,10751456127972E-5;
-8,65575114067441E-5;
-0,000100743931893738;
-7,86447666432076E-5;
-1,48180789901353E-5;
6,894725249261E-5;
0,000135942611314724;
0,000158137530778988;
0,000133578310915005;
8,50643148520304E-5;
4,21258636803292E-5;
2,07562481462928E-5;
1,59825749872773E-5;
1,12436777516296E-5;
-4,90656792451473E-6;
-2,91663985171923E-5;
-4,82139176530117E-5;
-5,2413410709685E-5;
-4,56383449905107E-5;
-4,21398408262391E-5;
-5,29596819062105E-5;
-7,37977115349932E-5;
-8,5490270251357E-5;
-6,79043894728441E-5;
-1,6689437862593E-5;
5,05986477625719E-5;
0,000104460154857409;
0,000122421302912689;
0,000102947403366341;
6,43096672696113E-5;
3,01151208369865E-5;
1,3115990156526E-5;
9,33115977628607E-6;
5,57192946675098E-6;
-7,25057244958185E-6;
-2,64994175085528E-5;
-4,16065023858201E-5;
-4,49506129929461E-5;
-3,96060962708315E-5;
-3,68266104536342E-5;
-4,53064431985899E-5;
-6,16484082943947E-5;
-7,07928715595229E-5;
-5,69646638308908E-5;
-1,67908868555668E-5;
3,59689532367923E-5;
7,82763696319443E-5;
9,26349927972007E-5;
7,78843300672201E-5;
4,8241803519053E-5;
2,20149622958376E-5;
9,05830821187792E-6;
6,27828012636299E-6;
3,50012044782519E-6;
-6,25984331008299E-6;
-2,09587548324418E-5;
-3,24861926805453E-5;
-3,50173839193189E-5;
-3,09131054166324E-5;
-2,87545709313788E-5;
-3,51443347023483E-5;
-4,74893317748918E-5;
-5,43828415960825E-5;
-4,3926065308106E-5;
-1,36139628076151E-5;
2,61707543490156E-5;
5,81323072822864E-5;
6,91957905690361E-5;
5,85329573103269E-5;
3,67639706948431E-5;
1,74963119627307E-5;
8,01646762851104E-6;
6,01862867959042E-6;
3,99854960602745E-6;
-3,16337494773403E-6;
-1,39502847330992E-5;
-2,24258611518794E-5;
-2,43532129930683E-5;
-2,14615030665097E-5;
-1,99702170184803E-5;
-2,46345247947879E-5;
-3,35711404933102E-5;
-3,85959468785165E-5;
-3,12277782227164E-5;
-9,72534372505349E-6;
1,85049607249919E-5;
4,12252919874049E-5;
4,92527491811863E-5;
4,20513121120266E-5;
2,70778921268581E-5;
1,38093209210269E-5;
7,27674161526691E-6;
5,86665435595214E-6;
4,41876207813895E-6;
-5,51713325707478E-7;
-7,98973377583262E-6;
-1,38647178253762E-5;
-1,5330624349387E-5;
-1,35632616018315E-5;
-1,27151278439872E-5;
-1,59256977792196E-5;
-2,19326536428035E-5;
-2,53681627516874E-5;
-2,07358146313363E-5;
-6,96046231950751E-6;
1,11489669150494E-5;
2,57657708109714E-5;
3,10992695929453E-5;
2,68677032897279E-5;
1,77735166554961E-5;
9,69893074991632E-6;
5,71368906279289E-6;
4,80628867621799E-6;
3,8527382318775E-6;
7,87238968412147E-7;
-3,73687366496641E-6;
-7,34284220956448E-6;
-8,39072615902581E-6;
-7,57678583666375E-6;
-7,26339148100896E-6;
-9,19182153850302E-6;
-1,2637575972734E-5;
-1,46684362054443E-5;
-1,23674585559373E-5;
-5,23455136246863E-6;
4,16394131639485E-6;
1,1807131396965E-5;
1,48291222711332E-5;
1,31669921743151E-5;
9,15077614290025E-6;
5,56877505667358E-6;
3,8036974259954E-6;
3,3616677989993E-6;
2,86800906340579E-6;
1,47471195149318E-6;
-5,10422307646352E-7;
-2,12962983371421E-6;
-2,7769542735654E-6;
-2,73779098404006E-6;
-2,84196784091277E-6;
-3,6347761598484E-6;
-4,85204748593886E-6;
-5,64320978306657E-6;
-5,29416342846533E-6;
-3,79526187702752E-6;
-1,79970725219377E-6;
-8,42195216955614E-8;
9,76658707353662E-7;
1,50622192946376E-6;
1,81639744949578E-6;
2,06557382030664E-6;
2,20361418603964E-6;
2,17626532990735E-6;
2,09273348558067E-6;
2,13690411888225E-6;
2,32320260118115E-6;
2,40761734008357E-6;
2,12127254857271E-6;
1,52631516500802E-6;
1,08777661718252E-6;
1,26992365518633E-6;
1,94823654164202E-6;
2,21815432779192E-6;
9,38162209103202E-7;
-2,29454026700355E-6;
0,00932691066869002;
0,0226199319513884;
0,0163623373171638;
0,00942504616142536;
0,0121652634364156;
0,00702548739644151;
0,00563586294587524;
0,0045840727304627;
0,000842120243256648;
0,00103525591523522;
-0,0011855776417472;
-0,00198558408559682;
-0,00280075103285427;
-0,00454841578478058;
-0,00488277528275394;
-0,00585035908206755;
-0,00593342359264553;
-0,00617354339922153;
-0,00698726093054085;
-0,00792154139033826;
-0,00935911467457561;
-0,0102605340175471;
-0,010538146491342;
-0,0101243465553684;
-0,00921661419639147;
-0,00843318167070831;
-0,00783029942867275;
-0,00745674566080244;
-0,00704679691594381;
-0,00641519922077851;
-0,00566849608997803;
-0,00494885955551292;
-0,00444318707833024;
-0,00408242154540355;
-0,00365642190911332;
-0,0030175117349907;
-0,00221564253503744;
-0,00155836843850366;
-0,00135033856581877;
-0,00166484432770891;
-0,00223890437650086;
-0,00261103195161551;
-0,00243388939388429;
-0,00167932147494579;
-0,000637634566073679;
0,000311929149030159;
0,000962976963429446;
0,00137599056151332;
0,00176600185827694;
0,00228233821891345;
0,00288225699481335;
0,00339036043094233;
0,00367756661035552;
0,00379516726136051;
0,00393437374582794;
0,0042452570153946;
0,00467047239466769;
0,00494794901924014;
0,00479963537363848;
0,0041634453146134;
0,0032828896392631;
0,00257223745807137;
0,00235099485476473;
0,00264417149078659;
0,00319308392998677;
0,00365910331035275;
0,00385733743280114;
0,00384549328225105;
0,00381777539428239;
0,00391028137849804;
0,0040860823006641;
0,0041886552950205;
0,00410382758943139;
0,00387848801167651;
0,00368526071558597;
0,00365943078997346;
0,00375015483562869;
0,00372343438839512;
0,00333090147312983;
0,00251774350484963;
0,00150233010118838;
0,000655346920454787;
0,000262373329591596;
0,000345499818637589;
0,000673492238037425;
0,00094390993943932;
0,000991700609381835;
0,000868238955197632;
0,000746415514162817;
0,000747134582758636;
0,000837037426200318;
0,000876316383039497;
0,00076295958313644;
0,000538259251583461;
0,000355203202234663;
0,000333399083620851;
0,000426989270433954;
0,000427550171371308;
0,000114124088818685;
-0,00056232653313279;
-0,010742021969262;
-0,0247264080607007;
-0,0187471055802884;
-0,0116561042885147;
-0,0140175610926998;
-0,00854436034065958;
-0,0070144632907997;
-0,00597036164751183;
-0,00223052649747313;
-0,00231303902861382;
0,00010079995596222;
0,00105096821930024;
0,00188196503521787;
0,00354741527652649;
0,00383737153177375;
0,00490445329147886;
0,00518952594787522;
0,00554791897375183;
0,00619883075743729;
0,00664517486971391;
0,00744155873385536;
0,00784049969817638;
0,00797876140533913;
0,00780498399412304;
0,00733311294195313;
0,00694197797548755;
0,00655700622888932;
0,00626678265587111;
0,0059410174426614;
0,00548885757101302;
0,00498987070777108;
0,00447567313308926;
0,00405248226371194;
0,00368321609348478;
0,00327735146699343;
0,00278052326667449;
0,00220619117037396;
0,00169812951789794;
0,0013876576042943;
0,00130959095491508;
0,00135210094867823;
0,00131007913087322;
0,00103305483208085;
0,000507043491167944;
-0,000138535591489655;
-0,000734074120477306;
-0,00118753582118632;
-0,00152434511435371;
-0,00184089003280101;
-0,00220384506978861;
-0,00259393285358313;
-0,00293216213545752;
-0,00315966625492907;
-0,00329960174693109;
-0,00343866793484977;
-0,00364546977494513;
-0,00389434216207952;
-0,00406565684275361;
-0,00403194165621795;
-0,0037642399817164;
-0,00337433675373121;
-0,00305352268112741;
-0,00295025975865566;
-0,00307725657002262;
-0,00331537678510104;
-0,00350763840997613;
-0,00356804920563285;
-0,00352373785240477;
-0,00346604303773989;
-0,00345945697568725;
-0,00348726691502553;
-0,0034761589853209;
-0,00337245286387427;
-0,00319858590337529;
-0,00303689675391923;
-0,00295237501608922;
-0,00292145443985093;
-0,00283275062276814;
-0,00256735440099923;
-0,00209873639256988;
-0,00153181920414848;
-0,00104560612311011;
-0,000778834744142541;
-0,000743151306954736;
-0,000827104526903159;
-0,00088396787087848;
-0,000833345764334146;
-0,000700353095791718;
-0,000569836104950798;
-0,000501501619634469;
-0,000479318259749632;
-0,000434559103926465;
-0,000316812833240369;
-0,000146477384123583;
4,13486153103354E-7;
6,40671547562502E-5;
6,70340033649556E-5;
0,000113387799546141;
0,000314074384709085;
0,000694211905763235;
0,00115699446623556;
0,00153706145837741;
0,00170655724523772;
0,00165549106450244;
0,00148785299890751;
0,00134015790291095;
0,00128739443036022;
0,00130688607730265;
0,00132075471109358;
0,00127442266721964;
0,0011833099751843;
0,0011114517026017;
0,00110588776132277;
0,00114826149843536;
0,00116891059755695;
0,00111319962706956;
0,00100240405357813;
0,000932839285624606;
0,00100701460084306;
0,0012483075469511;
0,00156787434893081;
0,00181389730168028;
0,00186917571205617;
0,00172491845459638;
0,00147701769857862;
0,00125110507717194;
0,00111618722793512;
0,00105157235906856;
0,000985942743989764;
0,000869392209394864;
0,000716186331425123;
0,000585083576472193;
0,000519197237264682;
0,000501719292390361;
0,000468900595477259;
0,000370784303421648;
0,000226845975006146;
0,000125097304560934;
0,000159097973049882;
0,000350035602786642;
0,000616627743632319;
0,000820203748597101;
0,000853796267951076;
0,000709374225493653;
0,000474308720577017;
0,0002629681426891;
0,000138036709836579;
8,04823864869006E-5;
2,52229956910314E-5;
-7,32896579503646E-5;
-0,000202221319543498;
-0,000308320799812719;
-0,000352607174416772;
-0,000350554140706747;
-0,000360229465503552;
-0,000427127144425833;
-0,000533719450306757;
-0,000600358581993753;
-0,000542449375701363;
-0,000341045788709499;
-7,00139799844118E-5;
0,000144906951394212;
0,000206792780196215;
0,000108306817385811;
-7,16182128873429E-5;
-0,000229720102605248;
-0,000309520701518184;
-0,000328381362949461;
-0,000345207359891303;
-0,000401215308370522;
-0,000484919965805176;
-0,000548404471679141;
-0,000556654143911944;
-0,000523736665550545;
-0,000502052727900997;
-0,000532625785389323;
-0,000599728797231947;
-0,000631775499740734;
-0,00055279794754003;
-0,000345893922427467;
-7,75444486373736E-5;
0,000139262299070321;
0,000217516673133296;
0,000150675654868143;
9,57659958985946E-6;
-0,000113193590508093;
-0,000167049698271493;
-0,000167583583204159;
-0,000167559726090186;
-0,000203856911577758;
-0,000266170936263201;
-0,000311629331186962;
-0,000308930536818607;
-0,000270650558000313;
-0,000243581005917871;
-0,000264306743958476;
-0,000318735610050117;
-0,000342966366997112;
-0,000269253873114026;
-8,25560843562358E-5;
0,00015787917240321;
0,000351453397361896;
0,000420788708245308;
0,000360169287902469;
0,000232696694985269;
0,000120746449246915;
6,9301162672458E-5;
6,45336767045702E-5;
5,96353417823939E-5;
2,19383055458981E-5;
0,00929408473317453;
0,022543570120555;
0,0162820197009028;
0,00936895822330507;
0,012121576526637;
0,00695209743914836;
0,00550445090051496;
0,00442256322159281;
0,000736982298472031;
0,00108518977122182;
-0,000933972335339244;
-0,00157323512044708;
-0,00233579220365923;
-0,00414428506565274;
-0,00459875300985316;
-0,00567440624154029;
-0,00581342569702755;
-0,0060671910529463;
-0,00689073027328561;
-0,00785895712356967;
-0,00934875731610465;
-0,0102914192971803;
-0,0105783406695432;
-0,010152082719205;
-0,00924365671501399;
-0,00849574928939115;
-0,00795135508733565;
-0,0076103076823379;
-0,00715682587213849;
-0,00639583000967407;
-0,0054792464827621;
-0,00462480399451822;
-0,00407737844666791;
-0,00377277836652555;
-0,00345462007835836;
-0,00291383816127091;
-0,00216513068241554;
-0,00152313416093828;
-0,00132444264646723;
-0,00166630579192384;
-0,0116154589542365;
-0,0253167648847273;
-0,0188903920123899;
-0,011187843271087;
-0,012885655162919;
-0,00682686464164324;
-0,00483665916795552;
-0,00339981851170302;
0,000770247397568231;
0,00120631439541837;
0,00417534730833771;
0,00560144666956779;
0,00674108943765919;
0,0085588134575836;
0,00894050412445984;
0,0101362421597598;
0,0106011895882968;
0,0111077813269731;
0,0117658155327687;
0,012039151556911;
0,0125581985652355;
0,0127195461325739;
0,0127707423813441;
0,0126616702109705;
0,0123060312228159;
0,0119649510992802;
0,0115194215890466;
0,0111123222804116;
0,0107095401548549;
0,010269399416716;
0,00982777685294036;
0,00931402191250173;
0,00875770908187453;
0,00813323881554312;
0,0074377756747981;
0,00670463258418754;
0,00595865410786745;
0,00526720592403222;
0,00466197735651471;
0,00414353648203368;
0,00367096475931601;
0,00317219192680209;
0,00259895527487947;
0,00193880596129831;
0,00122938313683099;
0,000531646151858208;
-0,000104998854015083;
-0,000658827059403476;
-0,00114025886933994;
-0,00157135573218347;
-0,00197127689436326;
-0,00235203610199619;
-0,00272298904816322;
-0,00309695725515759;
-0,00348282876231741;
-0,00387252557512451;
-0,00423296767946149;
-0,00451586561817426;
-0,00468492231819344;
-0,00474213232281529;
-0,00473454497099213;
-0,00473252374161337;
-0,00479188079705617;
-0,00492431049242395;
-0,00509475402356932;
-0,00524632625024195;
-0,0053340613665828;
-0,00534505627843775;
-0,00529482604442013;
-0,00520800844503889;
-0,00510158106799881;
-0,00498263424214862;
-0,00485775373788062;
-0,00474016212421458;
-0,0046437326719928;
-0,00456697489655278;
-0,00448217593518412;
-0,00434380478765686;
-0,00411547691722687;
-0,00379811264488649;
-0,00343766575172934;
-0,00310372004331373;
-0,00285128663098086;
-0,0026909988455816;
-0,00258734511096846;
-0,0024845956137968;
-0,0023409354597784;
-0,00214745840347027;
-0,00192223309381873;
-0,00168911656540408;
-0,00146074298575282;
-0,00123818361126996;
-0,00102318994733514;
-0,000827443660407761;
-0,000666754281561478;
-0,000543366311378735;
-0,000432814371779914;
-0,000290779740584127;
-7,98647815883727E-5;
0,000201456135739476;
0,000510183982955988;
0,000779670336491522;
0,000957602378259907;
0,00103546835069145;
0,00104969143136289;
0,00105516355436808;
0,0010913153933691;
0,00116436412698329;
0,00125504714078607;
0,00134112199729574;
0,00141429898478046;
0,00147901516558506;
0,00153797479113003;
0,00158126150734752;
0,00159191373214136;
0,00156475975139464;
0,00152129653138327;
0,00150423197871164;
0,00155125951231154;
0,00166586674235589;
0,0018080310476692;
0,00191435316682104;
0,0019353130082579;
0,00186403056829383;
0,0017368610306339;
0,00160686387686846;
0,00151053645827234;
0,00145135775122249;
0,00140891784289093;
0,00136219530095686;
0,00130618363686373;
0,00124937727617706;
0,00119766858878865;
0,00114224747821352;
0,00106490676458046;
0,000957563025639582;
0,000838375931840554;
0,000747545194288951;
0,00072192738574844;
0,00076606624586117;
0,00084247611839958;
0,000890862910274213;
0,000864232514283992;
0,000756650353598596;
0,000603381740443794;
0,000454693632679997;
0,000343625140838041;
0,000270852780460731;
0,000214855520820789;
0,000155507407021166;
9,02101290962843E-5;
3,03397486557759E-5;
-1,59983178141737E-5;
-5,69109481472604E-5;
-0,00011171626921728;
-0,000191131349211716;
-0,000280345794138337;
-0,000342111275017316;
-0,000341051407319206;
-0,000272028179007773;
-0,000170065901168106;
-9,21746342087503E-5;
-8,27246901490768E-5;
-0,000146924791844488;
-0,000251061841483256;
-0,000348040855568538;
-0,000408281787144296;
-0,000433532042247058;
-0,000445983878760546;
-0,000464759452174805;
-0,000490423821374733;
-0,000509355749248362;
-0,000511699918305439;
-0,000504828002775842;
-0,000508667472887355;
-0,000535933207390596;
-0,000574769798708056;
-0,000590862968424299;
-0,000550499143028717;
-0,000448018479981031;
-0,000315772144772001;
-0,000207085698951188;
-0,000163376512498838;
-0,000189050289662256;
-0,000252053796505585;
-0,000308493904762276;
-0,00033197366295959;
-0,000326101050510475;
-0,000313165279954171;
-0,000311027300442057;
-0,000318396069758949;
-0,000319819486151319;
-0,000303969487491591;
-0,000277345355078631;
-0,000259948610775237;
-0,000265838447489645;
-0,000285663380032463;
-0,000287921887857331;
-0,000240641255957681;
-0,000137670161361253;
-8,52233339723267E-6;
9,74573272659205E-5;
0,000142040480543679;
0,000121669969635469;
6,66551405649995E-5;
1,76805014383918E-5;
-1,800630703835E-6;
3,19538134542056E-6;
1,07102612155199E-5;
4,27998998314477E-6;
-1,31917508431254E-5;
-2,48699594913261E-5;
-1,82875507490173E-5;
9,45287931710116E-7;
1,31122095690087E-5;
3,28240269980362E-6;
-2,13800510186892E-5;
-3,21445856914198E-5;
1,07743855912564E-6;
8,47912661593838E-5;
0,000192310880766913;
0,000278355683286379;
0,000307931118318592;
0,000278247835468329;
0,000217719824321545;
0,000163757823554774;
0,000137009542005922;
0,000131345566605231;
0,000125390367931057;
0,000104070969373443;
7,15797666076854E-5;
4,56454925160565E-5;
3,94870620396093E-5;
4,82963310634224E-5;
5,28540033022442E-5;
3,76848528073372E-5;
7,98470636115004E-6;
-1,02856226861359E-5;
1,09155533727379E-5;
7,82607687256352E-5;
0,000167780528405792;
0,000238212094768851;
0,000257732229702367;
0,000224191804317425;
0,000163965166057937;
0,000111140996034967;
8,36802418259025E-5;
7,45704741709995E-5;
6,31920656703753E-5;
3,58128891920474E-5;
0,00933103699703662;
0,0225964744449276;
0,0163295967677418;
0,00939694249503454;
0,0121385376320723;
0,00698318375059127;
0,00556571395223934;
0,00449673131190933;
0,00077278246064628;
0,00102476091500782;
-0,00111753518349118;
-0,00185539227498016;
-0,00265253516263407;
-0,00442826053503064;
-0,00481404516020089;
-0,00582692709933252;
-0,00593328089543604;
-0,00617998718831399;
-0,00700061401058513;
-0,00795380958657969;
-0,00941869323810074;
-0,0103417352616516;
-0,010624975282542;
-0,0102046722175377;
-0,00929327417909938;
-0,0085208962614039;
-0,00793963971177778;
-0,0075782868515832;
-0,00714976401281481;
-0,00646396290114524;
-0,00564588733965821;
-0,0048691367017891;
-0,00434474719795156;
-0,00400537931464583;
-0,00362116626118692;
-0,00301882103021759;
-0,00223448100004536;
-0,00158025096295776;
-0,00137549852200094;
-0,00170364279811135;
-0,00229864006694598;
-0,00268691393437208;
-0,00251229460084619;
-0,00174999292931726;
-0,00070320595553709;
0,000238641892366193;
0,000872806503974476;
0,00127703914570949;
0,00168475192067629;
0,00224940779187059;
0,00291232920821108;
0,00347105360446804;
0,00377573202099743;
0,00387617584419675;
0,0039805403262209;
0,00426089818843993;
0,00467179865296636;
0,00494732866387225;
0,00479687231708984;
0,00414967364121614;
0,00325181168962627;
0,0025278105535835;
0,00230465424573146;
0,002604460317243;
0,00315758776303846;
0,00361680342803343;
0,00380039863956105;
0,00378082455195652;
0,00376792017812057;
0,00390126325758056;
0,00413033984905549;
0,00427561026335772;
0,00420526144931211;
0,00396492533720965;
0,00374159934624395;
0,0036892341392568;
0,00376710351128466;
0,00373801786805123;
0,00334303175791588;
0,00252001010249018;
0,00148944114264303;
0,000630582199254132;
0,000235249265738703;
0,000323079440612475;
0,000653657452905109;
0,000917383173624176;
0,000951951692414549;
0,000821153676882846;
0,000710988480599223;
0,000745240186439731;
0,000879127032653714;
0,000953544089468692;
0,000851709568940642;
0,000613861640577101;
0,000404999133716573;
0,000360330019773203;
0,000442477659442777;
0,000440415833331701;
0,000124422876246574;
-0,000560630294763307;
-0,0107532552429321;
-0,0247478622023412;
-0,0187709676687315;
-0,0116766151495421;
-0,0140365258937027;
-0,00856943374137784;
-0,00705096031554256;
-0,00601331280018337;
-0,0022641602116354;
-0,00231925106041088;
0,000130662980657813;
0,0011096524141965;
0,0019500604055402;
0,00360464033373428;
0,00387330221295632;
0,00492147189429249;
0,00519700106690884;
0,00555314462238617;
0,00620197977473623;
0,00664144522572597;
0,00742748746291322;
0,00781827007425051;
0,00795463750214121;
0,0077835387147542;
0,00731281617750183;
0,00691663005669745;
0,00652237083408152;
0,00622697393912475;
0,00590886332388635;
0,00547902585774099;
0,00500936502372362;
0,00451865709052954;
0,00410332691342277;
0,00372558630940154;
0,00330282410309692;
0,00279095729265801;
0,00220907936160767;
0,00169936195263292;
0,0013874814155235;
0,00130428535216564;
0,00133895570968532;
0,00129078581559648;
0,00101247019934238;
0,000488661314486589;
-0,000156012617173437;
-0,000755557015532732;
-0,00121631497346531;
-0,00155709962306579;
-0,00186745898355912;
-0,00221266647312216;
-0,00257950196744406;
-0,00289906014163064;
-0,00312014561427018;
-0,00326647123453514;
-0,003418566177886;
-0,00363701417612727;
-0,00389172931243938;
-0,00406426718452311;
-0,00403147872805025;
-0,00376747399209799;
-0,00338331600025779;
-0,00306699830004856;
-0,00296462931774432;
-0,00308998562154778;
-0,00332755375266822;
-0,00352302846166;
-0,00358910633207351;
-0,00354785558891039;
-0,00348544200544684;
-0,00346534414245048;
-0,00347547342107157;
-0,00345014990337978;
-0,00334147683253921;
-0,00317231321722508;
-0,00302037392910626;
-0,00294463538658672;
-0,00291818960508516;
-0,00283046808892343;
-0,00256571705266317;
-0,00209967448392972;
-0,00153679268324942;
-0,00105374988420385;
-0,000787643519471955;
-0,000750925443008876;
-0,000834736806662127;
-0,000894204450390566;
-0,000847899327919297;
-0,000717247210605023;
-0,000583392078585468;
-0,000505366584475249;
-0,000470497368633566;
-0,000415528381092695;
-0,000294167468445937;
-0,000127114711726608;
1,28590307392842E-5;
7,02064513569038E-5;
6,9867727730112E-5;
0,000115420164338014;
0,000315677187082846;
0,000694191466654436;
0,00115440999790488;
0,00153244965847043;
0,00170147363283286;
0,00165091638565989;
0,00148307537118499;
0,00133332806692538;
0,00127744916706638;
0,00129524968932247;
0,00131126846087107;
0,0012713072040535;
0,0011885357349912;
0,00112340794190348;
0,00112029779184618;
0,00116065148315983;
0,00117688356729862;
0,00111706253419724;
0,00100402176350762;
0,000933854294978231;
0,00100782386843674;
0,00124835269979077;
0,0015666642196213;
0,00181168710965672;
0,00186670419840555;
0,00172255067884902;
0,00147420355917869;
0,00124677291170083;
0,00110983295538986;
0,00104413735092601;
0,000979673818530325;
0,000866662503758217;
0,000718078070194549;
0,000590731431990417;
0,000526325529357012;
0,000507946690102381;
0,000472900291004734;
0,00037260405626634;
0,000227372228631085;
0,000125226419928751;
0,000159241060413143;
0,000350173116984558;
0,000616651063443121;
0,000820127767402841;
0,000853664024506529;
0,000709028515906488;
0,000473341150283399;
0,000260971977534892;
0,000134981913291414;
7,68910682175086E-5;
2,19728850243047E-5;
-7,54088836923949E-5;
-0,000202889649245035;
-0,000307769975477756;
-0,000351407133043033;
-0,000349301426361783;
-0,000359336475040256;
-0,000426764213689194;
-0,000533832644004537;
-0,000600690000921739;
-0,000542582956289477;
-0,000340550487123135;
-6,86771344429079E-5;
0,000146898347465675;
0,000208898069636102;
0,000109932958619793;
-7,07560161333374E-5;
-0,000229466778863907;
-0,000309509450445235;
-0,000328449051070899;
-0,000345635940180656;
-0,000402553630339991;
-0,000487492725705578;
-0,000551911559801764;
-0,000560230512373608;
-0,00052647636204482;
-0,000503596205357952;
-0,000533322768162001;
-0,000600222516099527;
-0,000632346007223821;
-0,000553030863922457;
-0,000344986869404786;
-7,50183042575078E-5;
0,000143054842691123;
0,000221554541667636;
0,000154009671800522;
1,20296544268524E-5;
-0,000110998062328476;
-0,000164417462135697;
-0,000164653888713242;
-0,000165581244689566;
-0,000204491769465639;
-0,000270280028230063;
-0,000318472770845336;
-0,000316454962634194;
-0,00027670486823785;
-0,000247163485297286;
-0,000265910903923483;
-0,000319577903016406;
-0,000343772357089961;
-0,000269615924476498;
-8,13717766140623E-5;
0,000161306057938026;
0,000356637496583534;
0,000426322228605794;
0,000364819058141329;
0,000236378638393909;
0,000124467558585031;
7,40204233441017E-5;
6,98613114082822E-5;
6,35315509476511E-5;
2,18323940337455E-5;
-4,47558202997187E-5;
-9,57705864857992E-5;
-0,000101514877078739;
-7,29589462614468E-5;
-5,3134111218643E-5;
-7,64921681488697E-5;
-0,000131569726327564;
-0,000161218987372813;
-0,000104062053701409;
5,41192514978639E-5;
0,000260523723503122;
0,000424920075124551;
0,000477982498591355;
0,000415016305961662;
0,000293169396712669;
0,000186382951279278;
0,000134138271613421;
0,000122508599708166;
0,000108249562806453;
6,20463905875057E-5;
-6,32000112237626E-6;
-6,03546355974534E-5;
-7,32576704398805E-5;
-5,46043814321585E-5;
-4,27220410971774E-5;
-6,85574259899949E-5;
-0,000122439932290768;
-0,000154143630938109;
-0,000109486763893768;
2,42427039173321E-5;
0,000200713376806826;
0,00034063372580347;
0,00038315818131874;
0,00032433301707972;
0,000214499753145523;
0,000118524718831548;
7,07234636580359E-5;
5,83871674228515E-5;
4,32322890290498E-5;
-4,10344718972501E-7;
-6,35155085951667E-5;
-0,000113464043512716;
-0,000126293640659049;
-0,000110296800343654;
-9,93318794340548E-5;
-0,000120987158957913;
-0,000167254973567504;
-0,000194450465940887;
-0,000155217266011053;
-3,83039426828309E-5;
0,000116028723444745;
0,000238777870035095;
0,000277060563138178;
0,000227585055562654;
0,000134253741692163;
5,33874813974329E-5;
1,44726924160188E-5;
5,99644377395831E-6;
-5,62550127708863E-6;
-4,26459998314175E-5;
-9,68083909776978E-5;
-0,000139213273401803;
-0,000148621825818103;
-0,000132133218161586;
-0,000119375256029248;
-0,00013472580531032;
-0,000171684523958721;
-0,000192672082201514;
-0,000156727087380394;
-5,397881658686E-5;
8,0980927019E-5;
0,00018876442625204;
0,000223923156268096;
0,000183771384624065;
0,000106191680947684;
3,95436303135952E-5;
8,8524167416618E-6;
3,78061257287203E-6;
-4,82889245127169E-6;
-3,60398999473394E-5;
-8,23507726854713E-5;
-0,000118385282537407;
-0,0001254821861419;
-0,000109629334281526;
-9,64752587094301E-5;
-0,000107349049871383;
-0,000137097750592614;
-0,000153787905374183;
-0,000122394789180682;
-3,43370315546693E-5;
8,10482468832679E-5;
0,000173289219049262;
0,000203825398874208;
0,000170524220877308;
0,000105688308824231;
5,03208540477548E-5;
2,53580054703476E-5;
2,16027924872154E-5;
1,40319697562143E-5;
-1,34673403501559E-5;
-5,41285382322677E-5;
-8,58859869393579E-5;
-9,25001729406939E-5;
-7,89363507728429E-5;
-6,71359187218756E-5;
-7,55630018537076E-5;
-0,000100263359570799;
-0,000114488216432079;
-8,86858082228558E-5;
-1,54751593686234E-5;
8,06323007749251E-5;
0,000157360425226892;
0,000182474156642548;
0,000154336285315339;
0,000100112596375727;
5,4056387877402E-5;
3,33789384529837E-5;
2,99713415565506E-5;
2,26325559190663E-5;
-2,04755374279679E-6;
-3,80161313831528E-5;
-6,62984102682072E-5;
-7,29172676659142E-5;
-6,19104534995423E-5;
-5,17993945066731E-5;
-5,83839584309145E-5;
-7,87720541030947E-5;
-9,09437431368069E-5;
-7,03581701353698E-5;
-1,074812268791E-5;
6,77669382211678E-5;
0,00013038088754072;
0,000150618010688205;
0,000127277620531447;
8,28306730984495E-5;
4,53826423108124E-5;
2,87754005182779E-5;
2,59254584716838E-5;
1,91351509319991E-5;
-2,55203375725601E-6;
-3,37708664151625E-5;
-5,8410725431334E-5;
-6,45925891073044E-5;
-5,552132024452E-5;
-4,65894644828181E-5;
-5,11400676979041E-5;
-6,72141710876633E-5;
-7,70713017329119E-5;
-6,07228931489801E-5;
-1,29274213725766E-5;
5,01607852706058E-5;
0,00010049036330702;
0,000116788458371769;
9,82362888223541E-5;
6,30488510627435E-5;
3,37775405126896E-5;
2,12418862353735E-5;
1,93174164328854E-5;
1,3493364891622E-5;
-4,9758730511821E-6;
-3,13794782445267E-5;
-5,22383888084996E-5;
-5,76024796236588E-5;
-4,99335898452958E-5;
-4,17827816730485E-5;
-4,42437566677918E-5;
-5,61674304686122E-5;
-6,36530798901098E-5;
-5,0813175771085E-5;
-1,33418964832497E-5;
3,61584364245556E-5;
7,56965611596796E-5;
8,86633955512676E-5;
7,45728922755062E-5;
4,78149731572345E-5;
2,59660146543504E-5;
1,71589638878364E-5;
1,61603856721937E-5;
1,13369313149044E-5;
-4,07966973292512E-6;
-2,59942116209543E-5;
-4,33250390718604E-5;
-4,78801390954543E-5;
-4,14631339805085E-5;
-3,40640859055301E-5;
-3,47323278659186E-5;
-4,30125712377838E-5;
-4,84191926138555E-5;
-3,87278279296817E-5;
-1,04788133549615E-5;
2,68810253398038E-5;
5,67521876508684E-5;
6,66715971575027E-5;
5,64409113320673E-5;
3,70417691081148E-5;
2,16327770433156E-5;
1,59805961746336E-5;
1,56733359631746E-5;
1,1654702754299E-5;
-1,0900264879477E-6;
-1,90395963673744E-5;
-3,32789256538117E-5;
-3,72057165340405E-5;
-3,2045943327356E-5;
-2,55005338466471E-5;
-2,47756104936225E-5;
-3,00025061995821E-5;
-3,37059676104116E-5;
-2,69055660356516E-5;
-6,90099495489695E-6;
1,96384958368904E-5;
4,08674768506814E-5;
4,7975346487192E-5;
4,10095012361147E-5;
2,79412926168574E-5;
1,80415689797424E-5;
1,50125875264641E-5;
1,51934656050656E-5;
1,18158242003619E-5;
1,40540921910059E-6;
-1,30476942771669E-5;
-2,45708899643834E-5;
-2,79881854105362E-5;
-2,40242569908964E-5;
-1,83521033909733E-5;
-1,65301290144089E-5;
-1,91785032809969E-5;
-2,14504829304392E-5;
-1,72122653807623E-5;
-4,43983836449991E-6;
1,26180516046937E-5;
2,62670628547063E-5;
3,08828149850671E-5;
2,6719499854781E-5;
1,9114593132045E-5;
1,39507205149764E-5;
1,31478729313733E-5;
1,37258706694041E-5;
1,09287848494621E-5;
2,62191231913778E-6;
-8,69260214758123E-6;
-1,77692698451874E-5;
-2,07013104269131E-5;
-1,77836001156447E-5;
-1,29094633823741E-5;
-1,01772645069363E-5;
-1,06072493523881E-5;
-1,16236802255956E-5;
-9,56584975148153E-6;
-3,00695850942676E-6;
5,89065805431464E-6;
1,30188437375218E-5;
1,55030493889645E-5;
1,37687088623821E-5;
1,08726117059761E-5;
9,77628940835619E-6;
1,08793658772778E-5;
1,18136194690299E-5;
9,5758828212935E-6;
3,18348999341447E-6;
-5,30605354406518E-6;
-1,21690567473466E-5;
-1,46181053468264E-5;
-1,2584352038857E-5;
-8,41496326841594E-6;
-4,92640293191213E-6;
-3,45880415488071E-6;
-3,37523125900016E-6;
-3,13954264428552E-6;
-1,84726618089258E-6;
1,15897939985789E-7;
1,70335605838417E-6;
2,38547507275104E-6;
2,72687772833745E-6;
3,8324745175512E-6;
6,17610623662361E-6;
8,87835532275507E-6;
1,011667947516E-5;
8,39808959385737E-6;
3,71849006711625E-6;
-2,26642197316849E-6;
-7,16076035536846E-6;
-9,15475764794166E-6;
-7,87633558141033E-6;
-4,3442627144589E-6;
-2,606481430176E-7;
2,78637916589287E-6;
3,80120528325588E-6;
2,51799129042899E-6;
-6,10789958643213E-7;
-4,47912865334299E-6;
-7,55539252001265E-6;
-8,39705414674648E-6;
-6,32904396266662E-6;
-1,89476345549744E-6;
3,29079435374833E-6;
7,28975441331966E-6;
8,76195198437866E-6;
7,49974526133094E-6;
4,31833845398228E-6;
5,13364829645254E-7;
-2,66545093497278E-6;
-4,25320638786188E-6;
-3,62961473222361E-6;
-6,86526792826388E-7;
3,8319460166266E-6;
8,15347611643643E-6;
9,92992052191334E-6;
7,38958381263501E-6;
5,98375217788098E-7;
-8,10605983976743E-6;
-1,5055757110617E-5;
-1,7176582728494E-5;
-1,37086954482614E-5;
-6,56587447194092E-6;
9,12133449796577E-7;
5,92893689136664E-6;
7,56678480941558E-6;
6,6965950559922E-6;
4,8077019279086E-6;
2,87582049353699E-6;
1,17310932727584E-6;
-5,70554542838952E-8;
4,11972733276597E-9;
2,40667331920397E-6;
7,21971704963172E-6;
1,25427632499965E-5;
1,49290832994325E-5;
1,13707960212069E-5;
1,60760510593517E-6;
-1,10267403853155E-5;
-2,11287873804999E-5;
-2,43015478476269E-5;
-1,97231890226247E-5;
-1,04254589138904E-5;
-1,14320013033308E-6;
4,64845005194116E-6;
6,39783452779813E-6;
5,86572780364019E-6;
5,08430981575146E-6;
4,74758011421818E-6;
4,3053811666648E-6;
3,3931990118101E-6;
2,98380797011065E-6;
4,90058965195423E-6;
9,89286704360318E-6;
1,59807204570538E-5;
1,88473094311515E-5;
1,44922042856677E-5;
2,38417785743095E-6;
-1,33584785735268E-5;
-2,59574975271273E-5;
-2,9970681291389E-5;
-2,45342618746201E-5;
-1,35705567198068E-5;
-2,91339280099598E-6;
3,44364514749759E-6;
5,2625772463433E-6;
5,02321365209197E-6;
5,18284076205842E-6;
6,18980357509587E-6;
6,81346525403832E-6;
6,18533616256961E-6;
5,39265950438511E-6;
6,87984932189236E-6;
1,19552441840359E-5;
1,8601427958061E-5;
2,18352988674891E-5;
1,68822414721878E-5;
2,99035907504256E-6;
-1,51259173181975E-5;
-2,96353183078429E-5;
-3,4298023310019E-5;
-2,82257945966016E-5;
-1,6028340660571E-5;
-4,37472146838893E-6;
2,36473933710206E-6;
4,21737465655635E-6;
4,22868118425422E-6;
5,17635415085305E-6;
7,29682992711338E-6;
8,80758638799571E-6;
8,43043781379191E-6;
7,33237301981461E-6;
8,44235920654196E-6;
1,35181828960028E-5;
2,05405768819074E-5;
2,40404957570414E-5;
1,86631945059932E-5;
3,48145946168529E-6;
-1,63604149065187E-5;
-3,22627738197502E-5;
-3,74070279794802E-5;
-3,08955301954477E-5;
-1,78454233700577E-5;
-5,52814736901893E-6;
1,43335246850519E-6;
3,28743586726251E-6;
3,50876908877435E-6;
5,10320892787505E-6;
8,12659479733515E-6;
1,03601525019199E-5;
1,02008700947437E-5;
8,8652653410165E-6;
9,64559149657762E-6;
1,46508462590528E-5;
2,18897582647212E-5;
2,55653425949281E-5;
1,99136369628655E-5;
3,87269294778433E-6;
-1,71286770835171E-5;
-3,39718072047446E-5;
-3,94509880325577E-5;
-3,26720093931507E-5;
-1,91015434452021E-5;
-6,40979544093177E-6;
6,35238756284942E-7;
2,46272973503397E-6;
2,85606032960081E-6;
4,96872858587719E-6;
8,70480348863538E-6;
1,15123614273255E-5;
1,15393161780245E-5;
1,00257172493834E-5;
1,05203164572977E-5;
1,53959812692995E-5;
2,27139997919106E-5;
2,64864699237365E-5;
2,06892751657715E-5;
4,16174823373068E-6;
-1,75085086627749E-5;
-3,49000940949381E-5;
-4,05862933595033E-5;
-3,36871481782014E-5;
-1,98817093343101E-5;
-7,0627634031553E-6;
-5,11794905324529E-8;
1,72678789838209E-6;
2,25796497544045E-6;
4,77395241763121E-6;
9,05336332052508E-6;
1,23022564454369E-5;
1,24864969349764E-5;
1,08475677885997E-5;
1,10976077116104E-5;
1,5796387574118E-5;
2,30775385208577E-5;
2,68797279042528E-5;
2,10472944106528E-5;
4,3525204630722E-6;
-1,75656834010841E-5;
-3,51686162765752E-5;
-4,09508993506284E-5;
-3,40557911125691E-5;
-2,02569287980816E-5;
-7,51900207103189E-6;
-6,37802737358818E-7;
1,07261055817918E-6;
1,71147411830188E-6;
4,52914820318804E-6;
9,20262101924964E-6;
1,2775720390134E-5;
1,30910215635397E-5;
1,13729346398553E-5;
1,14166683136851E-5;
1,59017378978055E-5;
2,30496022575525E-5;
2,68249307072903E-5;
2,10501590020169E-5;
4,45809757125864E-6;
-1,73516930247267E-5;
-3,48801520237638E-5;
-4,06636072096801E-5;
-3,38758272725907E-5;
-2,02851532797803E-5;
-7,80102821802953E-6;
-1,12924353909968E-6;
4,99661764973938E-7;
1,21952218305278E-6;
4,24951216011315E-6;
9,18640878817269E-6;
1,29809469214338E-5;
1,34033989521814E-5;
1,16458741765738E-5;
1,15182143033286E-5;
1,57616929629774E-5;
2,26972690505029E-5;
2,6398504100995E-5;
2,07580958118422E-5;
4,49313083067951E-6;
-1,69114258418565E-5;
-3,41269656414074E-5;
-3,98317782350358E-5;
-3,32359213780811E-5;
-2,0018990651168E-5;
-7,9295640271723E-6;
-1,53035664845994E-6;
6,43911970613895E-9;
7,83656104196383E-7;
3,94792252919313E-6;
9,03487029353905E-6;
1,29613721554891E-5;
1,34691485355437E-5;
1,17057466856083E-5;
1,14381262850378E-5;
1,54198639103998E-5;
2,20797373250926E-5;
2,56680171206146E-5;
2,022388016988E-5;
4,46890071508166E-6;
-1,62878271547172E-5;
-3,29951983707821E-5;
-3,85554238852937E-5;
-3,22192699482479E-5;
-1,95091010951475E-5;
-7,92657556817875E-6;
-1,84893511687235E-6;
-4,11891387744498E-7;
4,0193875889538E-7;
3,63306068573313E-6;
8,77279859538269E-6;
1,27542353919723E-5;
1,33275979854882E-5;
1,1586270147071E-5;
1,120680609063E-5;
1,49134778666928E-5;
2,12482550445926E-5;
2,46923614523647E-5;
1,94932065287666E-5;
4,3937941299558E-6;
-1,55213432702983E-5;
-3,15642099201085E-5;
-3,69263840182353E-5;
-3,09025780937898E-5;
-1,88029538776764E-5;
-7,81379734457839E-6;
-2,09404300179151E-6;
-7,61711411597351E-7;
7,0810244664802E-8;
3,31132944627591E-6;
8,42158687596497E-6;
1,23925570684427E-5;
1,30138949596092E-5;
1,13175874500408E-5;
1,08513005616743E-5;
1,42755721480252E-5;
2,0248405751547E-5;
2,35240607148936E-5;
1,86069291044629E-5;
4,27540709279314E-6;
-1,46479819131222E-5;
-2,9904778378738E-5;
-3,5026614815037E-5;
-2,93543207346673E-5;
-1,79429903889281E-5;
-7,61082476861941E-6;
-2,27409087487167E-6;
-1,04906145373744E-6;
-2,13095255864805E-7;
2,98858105979257E-6;
8,00086680168996E-6;
1,1906688997155E-5;
1,25604608354613E-5;
1,09276274785945E-5;
1,03966166210628E-5;
1,35363043768077E-5;
1,9121410177947E-5;
2,22105241332596E-5;
1,76021741590448E-5;
4,12141410753773E-6;
-1,36987441131921E-5;
-2,80787816647794E-5;
-3,29279696576206E-5;
-2,76345184707325E-5;
-1,69663357476731E-5;
-7,33474596296447E-6;
-2,39644847815074E-6;
-1,2792993961146E-6;
-4,52685949618141E-7;
2,67031181611744E-6;
7,52864825202251E-6;
1,13243907370183E-5;
1,19970000883696E-5;
1,04420527235294E-5;
9,86563323020383E-6;
1,27228822501398E-5;
1,79040964754477E-5;
2,07940081496677E-5;
1,65121935231644E-5;
3,93919223703732E-6;
-1,27002740005301E-5;
-2,61400602077052E-5;
-3,06931599481771E-5;
-2,57956242719455E-5;
-1,59055151414405E-5;
-7,00072247832464E-6;
-2,4679431962154E-6;
-1,45757705622624E-6;
-6,50901610499285E-7;
2,36117514825105E-6;
7,02085311502369E-6;
1,06703768544298E-5;
1,13500340327685E-5;
9,88377631884035E-6;
9,27864274556087E-6;
1,18591801787546E-5;
1,66286189909853E-5;
1,93113913043375E-5;
1,53660582578574E-5;
3,73531893456335E-6;
-1,16756105908878E-5;
-2,41353725210313E-5;
-2,83767360536407E-5;
-2,38833902203533E-5;
-1,47891243396195E-5;
-6,62244165050777E-6;
-2,49519888036699E-6;
-1,58914208792919E-6;
-8,1098452885257E-7;
2,06474362788816E-6;
6,49113263154861E-6;
9,96618806123824E-6;
1,06427904907441E-5;
9,27285264356226E-6;
8,65326269763766E-6;
1,09657378476652E-5;
1,53225758470753E-5;
1,77943549899544E-5;
1,41887903438069E-5;
3,51549207888002E-6;
-1,0644544166445E-5;
-2,21049513515875E-5;
-2,60257072970048E-5;
-2,19373510664351E-5;
-1,36420900411246E-5;
-6,21220096242934E-6;
-2,48458843454454E-6;
-1,6792442600212E-6;
-9,36378018850361E-7;
1,78366213914875E-6;
5,95107940131411E-6;
9,23043984201152E-6;
9,89545407109062E-6;
8,62671508735052E-6;
8,00470426820028E-6;
1,00601016192276E-5;
1,4009452025355E-5;
1,62698821014464E-5;
1,30017668194745E-5;
3,28470407060079E-6;
-9,62374857260773E-6;
-2,00828717341534E-5;
-2,36799580693983E-5;
-1,99911475244725E-5;
-1,24857851523572E-5;
-5,78081203258534E-6;
-2,44205463744958E-6;
-1,73293215717893E-6;
-1,03051139017287E-6;
1,5198828105255E-6;
5,41052219269531E-6;
8,47915726901651E-6;
9,12550506474223E-6;
7,96048299296987E-6;
7,34605263295096E-6;
9,15717201447882E-6;
1,27090640061646E-5;
1,4760735734627E-5;
1,18231061995741E-5;
3,04738398202097E-6;
-8,62693786380625E-6;
-1,80974607794143E-5;
-2,13727483847899E-5;
-1,80729049503819E-5;
-1,13382157938691E-5;
-5,33762718672109E-6;
-2,37302570321294E-6;
-1,75494768264504E-6;
-1,09669244405895E-6;
1,2748081682314E-6;
4,87771076949817E-6;
7,72600804231407E-6;
8,34793601916771E-6;
7,28713621479831E-6;
6,68845888610524E-6;
8,26944313843094E-6;
1,14378856799018E-5;
1,32858354657935E-5;
1,06679556600909E-5;
2,80743764897465E-6;
-7,66515509235616E-6;
-1,61718258748144E-5;
-1,9131312762183E-5;
-1,62057395453449E-5;
-1,02143202550307E-5;
-4,89064560441873E-6;
-2,28243543341235E-6;
-1,74972930745525E-6;
-1,13810971020414E-6;
1,04933064792913E-6;
4,35944252700331E-6;
6,98246223423651E-6;
7,57541192438995E-6;
6,61766459031396E-6;
6,04126624258252E-6;
7,40717726097273E-6;
1,02093215531516E-5;
1,18605765642731E-5;
9,54871316048001E-6;
2,56823479088251E-6;
-6,74708135303993E-6;
-1,43244114127598E-5;
-1,69774848743922E-5;
-1,44082745890418E-5;
-9,12628856889959E-6;
-4,44665067484954E-6;
-2,17476533892819E-6;
-1,72142577522529E-6;
-1,15782691047455E-6;
8,43873295265618E-7;
3,86115292882793E-6;
6,25794837986252E-6;
6,81844409025705E-6;
5,96119394270595E-6;
5,41213192709356E-6;
6,57860529625337E-6;
9,03399382011802E-6;
1,04971546732214E-5;
8,47528092253484E-6;
2,33263004168151E-6;
-5,87931206905008E-6;
-1,25695037430846E-5;
-1,49282779854285E-5;
-1,26951075624288E-5;
-8,08384205008802E-6;
-4,01133124423865E-6;
-2,05406525465826E-6;
-1,67389628287461E-6;
-1,15877526707432E-6;
6,58456496239608E-7;
3,38706737128477E-6;
5,56005496088849E-6;
6,08557834714223E-6;
5,32515855168347E-6;
4,80719942468246E-6;
5,79012437449842E-6;
7,92003404920607E-6;
9,20491051172378E-6;
7,45532164918159E-6;
2,10300525441158E-6;
-5,06660589542758E-6;
-1,0917698634074E-5;
-1,2996411330981E-5;
-1,10772596126875E-5;
-7,09449078994606E-6;
-3,58935456709824E-6;
-1,92395089340534E-6;
-1,61068828207624E-6;
-1,14371777444435E-6;
4,92768264055731E-7;
2,94033778907795E-6;
4,89472363178756E-6;
5,38360535066101E-6;
4,7154778704609E-6;
4,23125983704314E-6;
5,04652200357989E-6;
6,8733867185288E-6;
7,99067152691435E-6;
6,49452376083412E-6;
1,88132016363162E-6;
-4,31209817164799E-6;
-9,37634098093651E-6;
-1,11908257346141E-5;
-9,56258310674315E-6;
-6,16377128963342E-6;
-3,1844655786332E-6;
-1,78761894159795E-6;
-1,53502944867597E-6;
-1,115230220619E-6;
3,46236850915869E-7;
2,52318681854715E-6;
4,26643729096254E-6;
4,71775211245865E-6;
4,1367271988729E-6;
3,68791428339671E-6;
4,3511734000965E-6;
5,89807683303014E-6;
6,85906203856339E-6;
5,59684646697652E-6;
1,669154732758E-6;
-3,61752707628684E-6;
-7,94995340152931E-6;
-9,51716560213673E-6;
-8,15615935784729E-6;
-5,29548569170067E-6;
-2,79957257231166E-6;
-1,6478604808348E-6;
-1,44983222524345E-6;
-1,07569030458105E-6;
2,18076319949086E-7;
2,13702028425768E-6;
3,67840140374275E-6;
4,09186309444864E-6;
3,59227943202362E-6;
3,17970373394521E-6;
3,70621556775307E-6;
4,99646677589523E-6;
5,8127909879235E-6;
4,76472621680147E-6;
1,46773547300437E-6;
-2,98343857082274E-6;
-6,64062650562683E-6;
-7,97823332747481E-6;
-6,86068278137081E-6;
-4,49193427633403E-6;
-2,43684936706742E-6;
-1,50708846799247E-6;
-1,35769775390163E-6;
-1,02727785310157E-6;
1,07338839586247E-7;
1,78254692997958E-6;
3,13269473087842E-6;
3,50856708412063E-6;
3,08446607617205E-6;
2,70825495067945E-6;
3,1127197948939E-6;
4,1694875096782E-6;
4,85292248405045E-6;
3,99930105530194E-6;
1,27798115425438E-6;
-2,40937764089242E-6;
-5,44839035298841E-6;
-6,57441908942302E-6;
-5,6768120292275E-6;
-3,75412037796796E-6;
-2,09781635655751E-6;
-1,3673660913133E-6;
-1,26093520938556E-6;
-9,71976426545261E-7;
1,29475269850681E-8;
1,45987433398035E-6;
2,63042783583526E-6;
2,969435368828E-6;
2,61469665694804E-6;
2,27439425263545E-6;
2,57084187507203E-6;
3,41684917747145E-6;
3,97912055774255E-6;
3,30058566280894E-6;
1,10052586532075E-6;
-1,8940614144013E-6;
-4,3715577623469E-6;
-5,30408127288688E-6;
-4,60348508948085E-6;
-3,0819514659698E-6;
-1,78342371757634E-6;
-1,23042895206159E-6;
-1,16156945953112E-6;
-9,11567269366403E-7;
-6,62551547006913E-8;
1,16861389509272E-6;
2,17188726073356E-6;
2,47513623246589E-6;
2,18359903813776E-6;
1,87827345995072E-6;
2,07998032578688E-6;
2,73725783245494E-6;
3,18988784070653E-6;
2,66766690334858E-6;
9,35760723007816E-7;
-1,435531572912E-6;
-3,40701886341921E-6;
-4,16391415090853E-6;
-3,6382217250246E-6;
-2,47441090225193E-6;
-1,4941343382206E-6;
-1,09771190090715E-6;
-1,06135639457624E-6;
-8,47643986198248E-7;
-1,31482658183688E-7;
9,07966107378993E-7;
1,75666283333497E-6;
2,02556838763024E-6;
1,79113511742245E-6;
1,51947266931092E-6;
1,63889196561499E-6;
2,12857997921473E-6;
2,48276694449501E-6;
2,09885364850384E-6;
7,83861026353405E-7;
-1,03130260085408E-6;
-2,55053176120796E-6;
-3,14925084625924E-6;
-2,77738155753115E-6;
-1,92972473649679E-6;
-1,22998400452345E-6;
-9,70373362619759E-7;
-9,61796827267037E-7;
-7,816099419739E-7;
-1,83974835331171E-7;
6,76798473019602E-7;
1,38377181883399E-6;
1,6199945520436E-6;
1,43671106737421E-6;
1,19710376696128E-6;
1,24583098501128E-6;
1,58802600321748E-6;
1,85453551256478E-6;
1,5918298816459E-6;
6,44818078109221E-7;
-6,78477968169438E-7;
-1,79696040940928E-6;
-2,25436792683799E-6;
-2,01641556753145E-6;
-1,44551242411264E-6;
-9,90657629593094E-7;
-8,493236164168E-7;
-8,6415889222577E-7;
-7,14689497181437E-7;
-2,24968310085217E-7;
4,73725252787185E-7;
1,05177002135228E-6;
1,25715220043774E-6;
1,11927328881385E-6;
9,09894488470455E-7;
8,98641379634626E-7;
1,11227684988224E-6;
1,30137177662729E-6;
1,14378931259953E-6;
5,18461556681124E-7;
-3,73867637236427E-7;
-1,14050248858638E-6;
-1,47272980318699E-6;
-1,3500649670999E-6;
-1,01891245350213E-6;
-7,75542883098512E-7;
-7,35248886200984E-7;
-7,69489511095435E-7;
-6,47934702801436E-7;
-2,55686404181482E-7;
2,97161741470433E-7;
7,58844251192081E-7;
9,35356855374267E-7;
8,3740507488374E-7;
6,56276621815919E-7;
5,94862214031098E-7;
6,97634751393778E-7;
8,19007874759159E-7;
7,51549166938908E-7;
4,04492992309155E-7;
-1,14082596387848E-7;
-5,74877759369372E-7;
-7,9722475625162E-7;
-7,72569231562204E-7;
-6,46702743104767E-7;
-5,83788489065523E-7;
-6,2863494982199E-7;
-6,78641928670013E-7;
-5,82244728273318E-7;
-2,77309703899074E-7;
1,45384599919403E-7;
5,02897381097745E-7;
6,52602055709929E-7;
5,89401108375879E-7;
4,34445780834074E-7;
3,31808171264196E-7;
3,40124267607505E-7;
4,02860058743725E-7;
4,11657812946232E-7;
3,0249814968435E-7;
1,04379358071485E-7;
-9,35062945993836E-8;
-2,20357705570553E-7;
-2,77815150999851E-7;
-3,25409900948373E-7;
-4,14357992743734E-7;
-5,29792517950686E-7;
-5,92281682546769E-7;
-5,18365231344544E-7;
-2,9097420376673E-7;
1,65863104337822E-8;
2,81635665595703E-7;
4,06635299195606E-7;
3,73343376702692E-7;
2,42438225392195E-7;
1,0664870009774E-7;
3,56025747467268E-8;
4,81450244167286E-8;
1,20479957427391E-7;
2,11978816520443E-7;
2,8506641874675E-7;
3,1035193244484E-7;
2,65580250425703E-7;
1,40508111725929E-7;
-5,13924685639539E-8;
-2,66064168725476E-7;
-4,3888011302982E-7;
-5,10916682437996E-7;
-4,56909932008456E-7;
-2,97761561312246E-7;
-9,10948896510611E-8;
9,26279743691766E-8;
1,95034028002246E-7;
1,87158135881971E-7;
7,81740232169174E-8;
-8,35356244574404E-8;
-2,20162264375165E-7;
-2,5001737141282E-7;
-1,25713515374865E-7;
1,32364691352578E-7;
4,31506262947277E-7;
6,43469321154555E-7;
6,68358293413027E-7;
4,88786661980888E-7;
1,79076585635524E-7;
-1,37616746791093E-7;
-3,55926387430114E-7;
-4,34908053342456E-7;
-3,98361563929098E-7;
-2,98679632697771E-7;
-1,79529242030036E-7;
-6,66369083988326E-8;
1,52701960931016E-8;
2,86798170809808E-8;
-6,04861674695514E-8;
-2,41685799059592E-7;
-4,31409264283535E-7;
-4,96525023474399E-7;
-3,30685201261297E-7;
6,30339967343646E-8;
5,47159282912827E-7;
9,12549196853784E-7;
9,95688684955909E-7;
7,73380636154022E-7;
3,69745847751145E-7;
-2,7653273001397E-8;
-2,80840088232713E-7;
-3,64484440762264E-7;
-3,43097163025888E-7;
-2,9466936104578E-7;
-2,50567326538697E-7;
-1,9869408676038E-7;
-1,35239041725706E-7;
-1,043116130889E-7;
-1,75705701743501E-7;
-3,70730983415036E-7;
-6,02326359756178E-7;
-6,96213584603911E-7;
-4,98172864044077E-7;
3,32933941914309E-9;
6,35379815093686E-7;
1,12413246455571E-6;
1,25512297439019E-6;
1,00053639729379E-6;
5,24320999971485E-7;
6,52291040479575E-8;
-2,13443612602504E-7;
-2,99770079625948E-7;
-2,91387805922982E-7;
-2,86594482864823E-7;
-3,06015194095614E-7;
-3,06064832978277E-7;
-2,59080267848637E-7;
-2,14039811942536E-7;
-2,69629974046564E-7;
-4,73537381296325E-7;
-7,37003274113336E-7;
-8,53807162675907E-7;
-6,31838482151622E-7;
-4,74333908228535E-8;
6,99378585272771E-7;
1,28453515722598E-6;
1,45396534455116E-6;
1,17631222736569E-6;
6,46427652362265E-7;
1,42446670120733E-7;
-1,53480236803879E-7;
-2,40787667024097E-7;
-2,43414967994173E-7;
-2,75244325993094E-7;
-3,47620721448587E-7;
-3,91223278999287E-7;
-3,58807728503998E-7;
-3,02708934153142E-7;
-3,44370704046165E-7;
-5,52886272546804E-7;
-8,39378488859953E-7;
-9,73860690427678E-7;
-7,3523011836795E-7;
-8,99459565884957E-8;
7,42197344991532E-7;
1,39978775442053E-6;
1,59921425490075E-6;
1,30652497631023E-6;
7,39570290940423E-7;
2,05412982068864E-7;
-1,00627483120162E-7;
-1,87473814124783E-7;
-1,99283146947673E-7;
-2,61334386496324E-7;
-3,7704398242913E-7;
-4,56561082415293E-7;
-4,36913354154954E-7;
-3,72466171188863E-7;
-4,01966395598879E-7;
-6,11442912624184E-7;
-9,13217819700921E-7;
-1,06072809340933E-6;
-8,11752010508407E-7;
-1,24903034685902E-7;
7,66700279832029E-7;
1,475598528665E-6;
1,69749962275357E-6;
1,39670066651188E-6;
8,07096921115249E-7;
2,55512025993757E-7;
-5,45183503168811E-8;
-1,39705960990749E-7;
-1,59025140815878E-7;
-2,45495508702298E-7;
-3,95863242697801E-7;
-5,04374649931675E-7;
-4,95792402380873E-7;
-4,25386484021299E-7;
-4,44374261842503E-7;
-6,51737683708436E-7;
-9,62086052194809E-7;
-1,118532300267E-6;
-8,64637792236422E-7;
-1,52990575202225E-7;
7,75548850686887E-7;
1,51731549462201E-6;
1,75505397321823E-6;
1,452046553741E-6;
8,52184982663429E-7;
2,94088455864886E-7;
-1,47503656989359E-8;
-9,72952990186245E-8;
-1,22619176438087E-7;
-2,28297373095128E-7;
-4,05548330609817E-7;
-5,36839302656938E-7;
-5,37735026071756E-7;
-4,63448364463499E-7;
-4,73452214911098E-7;
-6,76153663754235E-7;
-9,89324594759196E-7;
-1,15114160153879E-6;
-8,9693488689679E-7;
-1,74880731002489E-7;
7,71200881506251E-7;
1,52991197508915E-6;
1,77768794680819E-6;
1,47742650247033E-6;
8,77812115456942E-7;
3,22433607046201E-7;
1,91071499174984E-8;
-6,00109046208648E-8;
-8,99876281156998E-8;
-2,10232389634672E-7;
-4,07467914729948E-7;
-5,55998486840262E-7;
-5,64901847039038E-7;
-4,88526598264193E-7;
-4,90949234235037E-7;
-6,86913669181115E-7;
-9,98042859562609E-7;
-1,16215902619787E-6;
-9,1149016444857E-7;
-1,91221795788851E-7;
7,55908392640383E-7;
1,51797504857432E-6;
1,77076988921617E-6;
1,47734654393622E-6;
8,86759803852419E-7;
3,41777018322068E-7;
4,74961435877251E-8;
-2,75852594742226E-8;
-6,10163402413779E-8;
-1,91727653904819E-7;
-4,02878664213909E-7;
-5,63759820861722E-7;
-5,79315595835498E-7;
-5,02376394064421E-7;
-4,9849736458873E-7;
-6,86078037279496E-7;
-9,91112417876058E-7;
-1,15490940948365E-6;
-9,10942743726632E-7;
-2,02638865177535E-7;
7,31714164689628E-7;
1,48570081446747E-6;
1,73922307950677E-6;
1,4559454841941E-6;
8,81592806091737E-7;
3,53278922306415E-7;
7,08696585149029E-8;
2,72189132784314E-10;
-3,55574657275559E-8;
-1,73148521251325E-7;
-3,92931113978626E-7;
-5,61883887434719E-7;
-5,82857658803084E-7;
-5,06630496133551E-7;
-4,97603607686165E-7;
-6,75539542221294E-7;
-9,71163977282153E-7;
-1,13244357561726E-6;
-8,97720637240819E-7;
-2,09723281942354E-7;
7,00456788912607E-7;
1,43689338731153E-6;
1,68752230388185E-6;
1,41699806426528E-6;
8,64668061993459E-7;
3,58022073437521E-7;
8,96745383782639E-8;
2,3875445543175E-8;
-1,34347647531005E-8;
-1,54801597072498E-7;
-3,78662112839749E-7;
-5,51983172223493E-7;
-5,77254795390554E-7;
-5,02795373336953E-7;
-4,89657476101581E-7;
-6,57019187490413E-7;
-9,40586259047322E-7;
-1,09753629504576E-6;
-8,74039233527913E-7;
-2,13034193983375E-7;
6,63777922300063E-7;
1,37497920133129E-6;
1,6197113713031E-6;
1,3639204535623E-6;
8,38124774596431E-7;
3,57015820133055E-7;
1,04357875781806E-7;
4,35480925863324E-8;
5,54855032350208E-9;
-1,36941760733691E-7;
-3,61006617358592E-7;
-5,35526744090745E-7;
-5,64091050300383E-7;
-4,92248559679776E-7;
-4,75918277708508E-7;
-6,32077320925107E-7;
-9,01536641278566E-7;
-1,05268690495973E-6;
-8,41906646185128E-7;
-2,13099335937302E-7;
6,23131765602949E-7;
1,30301553249873E-6;
1,53940077603807E-6;
1,29977506494406E-6;
8,0389627402524E-7;
3,51184746145912E-7;
1,15349916581787E-7;
5,96161918422684E-8;
2,16003584350773E-8;
-1,19772808719415E-7;
-3,40791618683029E-7;
-5,13835869235232E-7;
-5,44800044086403E-7;
-4,76242419551498E-7;
-4,57530543067705E-7;
-6,02114072808228E-7;
-8,55941146691158E-7;
-1,00013854146242E-6;
-8,03126802240785E-7;
-2,1040093371563E-7;
5,79787585854743E-7;
1,22370561771723E-6;
1,44980245861663E-6;
1,22728876423043E-6;
7,63713797268537E-7;
3,41378353817797E-7;
1,23069271002973E-7;
7,24081256878783E-8;
3,4938702970632E-8;
-1,03455172692994E-7;
-3,18750239930384E-7;
-4,88096317383555E-7;
-5,20667348868613E-7;
-4,55900002097936E-7;
-4,35514525334731E-7;
-5,683708417588E-7;
-8,05507309075949E-7;
-9,41876246306197E-7;
-7,59308278517325E-7;
-2,05391163920381E-7;
5,34845891300373E-7;
1,13941573670218E-6;
1,35373239080857E-6;
1,1488630896283E-6;
7,19113739135848E-7;
3,28363077112457E-7;
1,27911623495049E-7;
8,22499209032739E-8;
4,57897937117866E-8;
-8,81117732016688E-8;
-2,95518144645885E-7;
-4,59352194042393E-7;
-4,92842544694441E-7;
-4,32228591756299E-7;
-4,10779279318689E-7;
-5,31945624917009E-7;
-7,51740901369609E-7;
-8,79651266707165E-7;
-7,11872922855983E-7;
-1,98483086797126E-7;
4,8925294747403E-7;
1,05220255748161E-6;
1,25364430179545E-6;
1,06659617095257E-6;
6,71445902518335E-7;
3,12830405785397E-7;
1,30253272915508E-7;
8,94534920537455E-8;
5,43769019148045E-8;
-7,38253772327932E-8;
-2,71645225808496E-7;
-4,28526826708227E-7;
-4,62338771718039E-7;
-4,06117766407795E-7;
-3,84125452213342E-7;
-4,93794165384814E-7;
-6,959457449494E-7;
-8,14982962002635E-7;
-6,62062088221311E-7;
-1,90049327835255E-7;
4,4380295745111E-7;
9,63823051757131E-7;
1,15164962004903E-6;
9,82299139954305E-7;
6,21886298736293E-7;
2,95397360959996E-7;
1,30446595102688E-7;
9,43227380892926E-8;
6,09218925612718E-8;
-6,06552263090932E-8;
-2,47600890781685E-7;
-3,96418769207332E-7;
-4,3004435701572E-7;
-3,78346275785066E-7;
-3,5625030536805E-7;
-4,54745073244277E-7;
-6,39245762817687E-7;
-7,4918249739981E-7;
-6,10955379260879E-7;
-1,80428494808381E-7;
3,99161060062022E-7;
8,75767290592961E-7;
1,04954385207502E-6;
8,97521313579088E-7;
5,71450187789994E-7;
2,76609948757464E-7;
1,28820591725601E-7;
9,71480134920927E-8;
6,56436127916924E-8;
-4,86279149699726E-8;
-2,23778492234546E-7;
-3,63714500105935E-7;
-3,96725282221146E-7;
-3,49590970707388E-7;
-3,27755453862541E-7;
-4,15501321479023E-7;
-5,82594859714768E-7;
-6,83367369430347E-7;
-5,59478538068478E-7;
-1,69925062671021E-7;
3,5586853750313E-7;
7,89275211790495E-7;
9,48828273084879E-7;
8,13564010913021E-7;
5,20998373916509E-7;
2,56943155487655E-7;
1,25676204324575E-7;
9,8202370127409E-8;
6,8750045080465E-8;
-3,77515670277388E-8;
-2,00501622699283E-7;
-3,30997923412386E-7;
-3,63041831484421E-7;
-3,20433615526654E-7;
-2,99154707688443E-7;
-3,76657837599123E-7;
-5,26795339947309E-7;
-6,18474115322561E-7;
-5,0840910002034E-7;
-1,58804643728593E-7;
3,14356423519052E-7;
7,05361332377673E-7;
8,50743325397113E-7;
7,31503991982196E-7;
4,71252561039073E-7;
2,36812705873207E-7;
1,21291349464309E-7;
9,77414256028294E-8;
7,04411022897829E-8;
-2,80121580803113E-8;
-1,78034063313945E-7;
-2,98755980537605E-7;
-3,29546202754341E-7;
-2,91362106096396E-7;
-2,70877196743322E-7;
-3,38710291499188E-7;
-4,72506104670978E-7;
-5,55271648027776E-7;
-4,58398606349217E-7;
-1,4730834086112E-7;
2,74957533075451E-7;
6,24835683521671E-7;
7,5628442698661E-7;
6,52222157472548E-7;
4,2281301758368E-7;
2,16573212281775E-7;
1,15918351548196E-7;
9,60035084876717E-8;
7,09081954313681E-8;
-1,93801702762172E-8;
-1,56583686130174E-7;
-2,67389063077241E-7;
-2,96699552796828E-7;
-2,62790351160303E-7;
-2,43283131358706E-7;
-3,02053821574604E-7;
-4,20254977907925E-7;
-4,94386997697575E-7;
-4,09977964425366E-7;
-1,35637290655994E-7;
2,37917459129192E-7;
5,4832400646582E-7;
6,66235857536191E-7;
5,76408986209699E-7;
3,76157914709481E-7;
1,96523610238898E-7;
1,09779961050278E-7;
9,32071123679858E-8;
7,03290473779134E-8;
-1,18156463928228E-8;
-1,36305785202138E-7;
-2,37216526889145E-7;
-2,6487923822414E-7;
-2,35050170147729E-7;
-2,1665579641345E-7;
-2,67005608322549E-7;
-3,70458900568021E-7;
-4,36310316625087E-7;
-3,63571164106332E-7;
-1,23970590533988E-7;
2,0340653073316E-7;
4,76294645891089E-7;
5,81188043912714E-7;
5,04596937761103E-7;
3,31667219919991E-7;
1,76915516726537E-7;
1,03081116262465E-7;
8,95543019436342E-8;
6,88704209736999E-8;
-5,26623341117763E-9;
-1,17315433950942E-7;
-2,08490551303233E-7;
-2,34382971325764E-7;
-2,08413588817858E-7;
-1,91227505936739E-7;
-2,33807944448984E-7;
-3,23430715038118E-7;
-3,8140993370451E-7;
-3,19504952331685E-7;
-1,12460116242076E-7;
1,71527608773494E-7;
4,09070084294278E-7;
5,01560692198951E-7;
4,37170894006021E-7;
2,89624491958946E-7;
1,579500125348E-7;
9,60006243375049E-8;
8,5226675259046E-8;
6,66846901659832E-8;
3,27842717227117E-10;
-9,9688026689831E-8;
-1,8139898908659E-7;
-2,05443617813592E-7;
-1,83087606860757E-7;
-1,67167737538077E-7;
-2,02638729576897E-7;
-2,79394745357865E-7;
-3,29954195649226E-7;
-2,78022575563071E-7;
-1,01228681495453E-7;
1,42327877378161E-7;
3,46850605904837E-7;
4,27628850944007E-7;
3,74391083788235E-7;
2,50237271985557E-7;
1,39793287272253E-7;
8,86928500333256E-8;
8,03865314757185E-8;
6,3911564107685E-8;
5,03141337077303E-9;
-8,34631771798752E-8;
-1,5607601346683E-7;
-1,78230337216724E-7;
-1,5922832797413E-7;
-1,44604442713534E-7;
-1,73613187440171E-7;
-2,38494838821412E-7;
-2,82117112734474E-7;
-2,39290093294063E-7;
-9,03824660289369E-8;
1,15805296569473E-7;
2,89730420559368E-7;
3,59538258359162E-7;
3,16411062714302E-7;
2,13639120788814E-7;
1,22568266157894E-7;
8,12952066367373E-8;
7,51797745267819E-8;
6,06776617037203E-8;
8,91117728208452E-9;
-6,86576259664665E-8;
-1,3260377964518E-7;
-1,52858257884337E-7;
-1,36942066785236E-7;
-1,2361918657322E-7;
-1,46801504345653E-7;
-2,00805953990888E-7;
-2,3799425365995E-7;
-2,03410145407651E-7;
-8,00022906133115E-8;
9,1918505030768E-8;
2,37711605551701E-7;
2,97325772805248E-7;
2,63287528141512E-7;
1,79900973027867E-7;
1,06367037599836E-7;
7,39216578299032E-8;
6,9734685239916E-8;
5,70995841748707E-8;
1,20393806916031E-8;
-5,52603889798845E-8;
-1,11027513227641E-7;
-1,29400809379904E-7;
-1,16300176120149E-7;
-1,04259642739477E-7;
-1,222309138113E-7;
-1,6634973173749E-7;
-1,9761320599789E-7;
-1,70430607127934E-7;
-7,01548237161087E-8;
7,05926030657507E-8;
1,90724710591353E-7;
2,40938927630497E-7;
2,14996756650327E-7;
1,49042833534993E-7;
9,12553341487128E-8;
6,66725452357984E-8;
6,41616788903701E-8;
5,32770659483397E-8;
1,4486730592429E-8;
-4,32441364540679E-8;
-9,13550928394454E-8;
-1,07887240645555E-7;
-9,73354527685569E-8;
-8,65408836836626E-8;
-9,98877256569786E-8;
-1,35091757281115E-7;
-1,6094178752874E-7;
-1,40346588488372E-7;
-6,08861028761369E-8;
5,17255196373569E-8;
1,48633687344339E-7;
1,90247331185425E-7;
1,71452057373586E-7;
1,21041712523249E-7;
7,72697903400469E-8;
5,9625207545977E-8;
5,85592872433913E-8;
4,93011016782855E-8;
1,63230853554181E-8;
-3,25574545819356E-8;
-7,35635198238077E-8;
-8,83155093826495E-8;
-8,0046314119686E-8;
-7,04517771108514E-8;
-7,97356220658968E-8;
-1,0696234661826E-7;
-1,27901170326679E-7;
-1,13116190754872E-7;
-5,22281935768379E-8;
3,51992858820706E-8;
1,11255768123024E-7;
1,45057958854767E-7;
1,32510312525242E-7;
9,58365987690452E-8;
6,44272986955189E-8;
5,28478771688735E-8;
5,30102949515525E-8;
4,52469915030563E-8;
1,76145281075969E-8;
-2,31465976771851E-8;
-5,76100126343949E-8;
-7,06552729903394E-8;
-6,44160447291546E-8;
-5,59621760228825E-8;
-6,17042290080401E-8;
-8,18557741342168E-8;
-9,83768891917174E-8;
-8,86649561335109E-8;
-4,42048369577602E-8;
2,08719418550908E-8;
7,83674506479004E-8;
1,05132124329943E-7;
9,79840451001383E-8;
7,33336504994932E-8;
5,27272112506409E-8;
4,63908828855419E-8;
4,75801096059736E-8;
4,11868894934098E-8;
1,84314239580969E-8;
-1,49416818970822E-8;
-4,34260062277563E-8;
-5,48522550659424E-8;
-5,03995514034828E-8;
-4,30204036045824E-8;
-4,57124598576737E-8;
-5,96430207376843E-8;
-7,22179921338239E-8;
-6,6887742891028E-8;
-3,68219836338166E-8;
8,59991564084043E-9;
4,97153939947052E-8;
7,01912094834832E-8;
6,7658620125554E-8;
5,34189577694218E-8;
4,21496369187957E-8;
4,02958057024952E-8;
4,23278017391987E-8;
3,71752962231777E-8;
1,88340355666434E-8;
-7,86945418473175E-9;
-3,09330391496231E-8;
-4,08340300277803E-8;
-3,79382396529831E-8;
-3,15614598726241E-8;
-3,1655370252145E-8;
-4,01720744691948E-8;
-4,92573197035244E-8;
-4,76648735390624E-8;
-3,0078502434752E-8;
-1,77057337760883E-9;
2,50293228439806E-8;
3,99299315473891E-8;
4,12837353431702E-8;
3,59596874062459E-8;
3,26642778284699E-8;
3,45877943998213E-8;
3,72990316832928E-8;
3,32601759664201E-8;
1,88816609232941E-8;
-1,84743699362031E-9;
-2,00358543065149E-8;
-2,85139141386646E-8;
-2,69593051918314E-8;
-2,15095702189608E-8;
-1,94225021310757E-8;
-2,32768573431268E-8;
-2,93003398349931E-8;
-3,08534061723695E-8;
-2,39678359777136E-8;
-1,04002689557641E-8;
4,01866661295884E-9;
1,4025359592461E-8;
1,86011695006618E-8;
2,08074103773124E-8;
2,42317546736119E-8;
2,92877894690891E-8;
3,25278975090692E-8;
2,94818984172561E-8;
1,86302560048384E-8;
3,20472196581114E-9;
-1,06358198680484E-8;
-1,77951782929751E-8;
-1,7382520387599E-8;
-1,27841546790379E-8;
-8,89549872769704E-9;
-8,78343435636129E-9;
-1,21474060045479E-8;
-1,63048772922878E-8;
-1,84741091481957E-8;
-1,74439482183334E-8;
-1,3607691208116E-8;
-7,85658749072102E-9;
-6,61781747900191E-10;
7,80606921751313E-9;
1,68003249464964E-8;
2,44055673289829E-8;
2,80403091286732E-8;
2,58704956713796E-8;
1,81321837777221E-8;
7,37156655534104E-9;
-2,62501989032292E-9;
-8,57220216097672E-9;
-9,1160123273812E-9;
-5,29132044351433E-9;
5,35427362289953E-11;
3,49123326400255E-9;
2,41029023460107E-9;
-3,85856306464455E-9;
-1,35729382131801E-8;
-2,305900990273E-8;
-2,81455170394917E-8;
-2,60522406344464E-8;
-1,67835173753595E-8;
-3,20446494987135E-9;
1,03167928308089E-8;
1,99421465570566E-8;
2,38567237223374E-8;
2,24536565965492E-8;
1,74334048042245E-8;
1,07363904182775E-8;
4,10609732169669E-9;
-7,36247408379178E-10;
-2,06827760152875E-9;
1,05810338457425E-9;
7,55095785224731E-9;
1,37299258771686E-8;
1,45842286755546E-8;
6,64536098803163E-9;
-9,24110845014096E-9;
-2,73944908597622E-8;
-3,98886404143131E-8;
-4,09019091060989E-8;
-3,00413540639553E-8;
-1,23899176012768E-8;
4,71997018518694E-9;
1,58968101775648E-8;
1,99875088380383E-8;
1,92450548846545E-8;
1,65749765486544E-8;
1,33803501175E-8;
9,66804729465644E-9;
5,82605472856243E-9;
3,85800759295338E-9;
6,35692914091363E-9;
1,37222724081219E-8;
2,21174588706952E-8;
2,45890931109862E-8;
1,53732625274217E-8;
-5,44805142828486E-9;
-3,05976739697191E-8;
-4,91200191225779E-8;
-5,27318737990992E-8;
-4,07094599994621E-8;
-1,99138381069059E-8;
-5,19282460042185E-11;
1,22593451607149E-8;
1,64374238490965E-8;
1,62604815888952E-8;
1,55974883877596E-8;
1,53831716117551E-8;
1,41714616430822E-8;
1,12257774991567E-8;
8,75752721741526E-9;
1,0702267478705E-8;
1,86986651738202E-8;
2,88308582395295E-8;
3,26268967172037E-8;
2,24856726040407E-8;
-2,16138873463815E-9;
-3,28086065922551E-8;
-5,61178675072591E-8;
-6,18642482265295E-8;
-4,90556706653722E-8;
-2,59363317236387E-8;
-4,06278000073901E-9;
9,01746725922527E-9;
1,32081317372316E-8;
1,3506372321209E-8;
1,45348783065362E-8;
1,68214672545076E-8;
1,77233229495579E-8;
1,55747325199524E-8;
1,27291668775626E-8;
1,41863851945002E-8;
2,25989521566387E-8;
3,40482278033759E-8;
3,89070548940187E-8;
2,81422223969237E-8;
6,53196583471825E-10;
-3,41559877904289E-8;
-6,11453267258249E-8;
-6,86061753995743E-8;
-5,53359125598254E-8;
-3,0614992051828E-8;
-7,37974532838442E-9;
6,15294189604975E-9;
1,02944600186123E-8;
1,09853378893187E-8;
1,3413966980633E-8;
1,77633797648888E-8;
2,0426344946983E-8;
1,89824394820215E-8;
1,5864422625408E-8;
1,68955794566386E-8;
2,55420665372128E-8;
3,79332697567976E-8;
4,36211131390354E-8;
3,24982863946856E-8;
3,02764511514578E-9;
-3,4762238015788E-8;
-6,44485340619396E-8;
-7,32488372674781E-8;
-5,97934558512048E-8;
-3,40994749886959E-8;
-1,00644265388812E-8;
3,6495945303787E-9;
7,68486093784629E-9;
8,69669545104111E-9;
1,22651374362129E-8;
1,82791532411289E-8;
2,23817197468565E-8;
2,15511685471783E-8;
1,82565948369447E-8;
1,89211910147041E-8;
2,76406198500071E-8;
4,06490904468206E-8;
4,69544795034187E-8;
3,56982841753071E-8;
5,00125732762477E-9;
-3,47410666566532E-8;
-6,62639619396506E-8;
-7,60680097577552E-8;
-6,2663927203779E-8;
-3,65321413560919E-8;
-1,21801664482287E-8;
1,48349266048912E-9;
5,37390262154844E-9;
6,63735966292029E-9;
1,11073626393883E-8;
1,84312965914808E-8;
2,36812981725299E-8;
2,33811652047313E-8;
1,99904868298228E-8;
2,03421618822128E-8;
2,90027592833053E-8;
4,23447463742737E-8;
4,9083377675845E-8;
3,7885685877265E-8;
6,60681375807426E-9;
-3,41971907296991E-8;
-6,68075730564515E-8;
-7,73203637452345E-8;
-6,41619644898146E-8;
-3,80489138696849E-8;
-1,37880177218299E-8;
-3,66534149546906E-10;
3,34375411590091E-9;
4,80029114580451E-9;
9,96127655431377E-9;
1,82771490995879E-8;
2,44165634709435E-8;
2,45682630576825E-8;
2,11479186320515E-8;
2,1236116462136E-8;
2,97276754590238E-8;
4,31626584543694E-8;
5,01718684126967E-8;
3,91891879150795E-8;
7,87974185009245E-9;
-3,32235584295843E-8;
-6,6279578204621E-8;
-7,7242975346286E-8;
-6,44893204795263E-8;
-3,87776217756075E-8;
-1,49484839154164E-8;
-1,92319310409093E-9;
1,58131007783943E-9;
3,17686179025059E-9;
8,84295286754995E-9;
1,78701296515294E-8;
2,46675881466652E-8;
2,51973505336554E-8;
2,18065633119936E-8;
2,16788579738279E-8;
2,99080766260926E-8;
4,32301122529209E-8;
5,03717998425159E-8;
3,97345729292011E-8;
8,85413645035989E-9;
-3,19079488282513E-8;
-6,48645225252E-8;
-7,60537816059228E-8;
-6,38313044912287E-8;
-3,88323738854098E-8;
-1,57126425452948E-8;
-3,21234904541247E-9;
6,93987518163391E-11;
1,75810085965108E-9;
7,76340399484393E-9;
1,72581808824085E-8;
2,45107804584413E-8;
2,53543964179889E-8;
2,20398836790342E-8;
2,1733186538984E-8;
2,96289580301447E-8;
4,26697548800933E-8;
4,98237970986682E-8;
3,96335327407191E-8;
9,56236106380669E-9;
-3,03247458296995E-8;
-6,27271408563177E-8;
-7,39502076866271E-8;
-6,23568976359535E-8;
-3,83236574798345E-8;
-1,61353911229285E-8;
-4,25665897946096E-9;
-1,21044978333041E-9;
5,31897923482566E-10;
6,73536512613458E-9;
1,64849492790258E-8;
2,40149540613352E-8;
2,51105234112148E-8;
2,19111895018402E-8;
2,1463658842344E-8;
2,89699307628801E-8;
4,15907339282273E-8;
4,86568729584843E-8;
3,89936846997714E-8;
1,00353758814588E-8;
-2,85440253396395E-8;
-6,00171873284468E-8;
-7,11149470632879E-8;
-6,02209903217638E-8;
-3,73473516256678E-8;
-1,6265064067995E-8;
-5,07869487318236E-9;
-2,27466303221135E-9;
-5,1408052679704E-10;
5,76614492446743E-9;
1,55881489934711E-8;
2,32449398185792E-8;
2,4539698997447E-8;
2,14845970292348E-8;
2,09271993736614E-8;
2,80014758092672E-8;
4,0092183818398E-8;
4,698647831359E-8;
3,79083544217798E-8;
1,03033992586875E-8;
-2,66260605509572E-8;
-5,6870106257893E-8;
-6,77056443392537E-8;
-5,75624522165183E-8;
-3,59954804550146E-8;
-1,61439645241888E-8;
-5,70249795750234E-9;
-3,14476094368558E-9;
-1,39389532524647E-9;
4,85980302713609E-9;
1,46015351631242E-8;
2,22545384028155E-8;
2,36985091068019E-8;
2,08132111625238E-8;
2,01754391607044E-8;
2,67873000151711E-8;
3,82631316920826E-8;
4,49180438118317E-8;
3,64634440642455E-8;
1,03929861109573E-8;
-2,46204237749452E-8;
-5,34022037687699E-8;
-6,38677383139672E-8;
-5,45042159076728E-8;
-3,43467418177957E-8;
-1,58171048165397E-8;
-6,15120111061526E-9;
-3,83528519662259E-9;
-2,11956114525388E-9;
4,02085035987805E-9;
1,35559514516933E-8;
2,10975891508351E-8;
2,26476994032454E-8;
1,99466186304266E-8;
1,92536277667211E-8;
2,53849453880844E-8;
3,61829153724289E-8;
4,25474406519841E-8;
3,47406547332854E-8;
1,03326056575661E-8;
-2,25723030506719E-8;
-4,97180474573127E-8;
-5,97265188109705E-8;
-5,11550275139394E-8;
-3,24723296690467E-8;
-1,53189703943422E-8;
-6,44380430932776E-9;
-4,36601948983992E-9;
-2,70561609293267E-9;
3,2521631337081E-9;
1,24779297431147E-8;
1,98172136634758E-8;
2,1436085767402E-8;
1,89300763554014E-8;
1,82007826977373E-8;
2,38468696666758E-8;
3,39242883615885E-8;
3,99531822946598E-8;
3,28044416239405E-8;
1,0142461401166E-8;
-2,05202784095077E-8;
-4,59050201682138E-8;
-5,53911448500493E-8;
-4,76110995352959E-8;
-3,04368764739596E-8;
-1,46860530883251E-8;
-6,60215558133429E-9;
-4,75391772304413E-9;
-3,16363688889331E-9;
2,55372708998164E-9;
1,13862513913669E-8;
1,84522894631412E-8;
2,01068641364643E-8;
1,78030898926159E-8;
1,70573029406252E-8;
2,22142462139704E-8;
3,15440283957666E-8;
3,72092086497838E-8;
3,07186202081744E-8;
9,84832131417463E-9;
-1,84967898674982E-8;
-4,20427966770627E-8;
-5,09568943898702E-8;
-4,39558631676331E-8;
-2,82946370556678E-8;
-1,3947051018523E-8;
-6,64425138933833E-9;
-5,01590089626442E-9;
-3,50723278615689E-9;
1,92600252609508E-9;
1,03015768390259E-8;
1,70381951432707E-8;
1,87007922406707E-8;
1,66001076855001E-8;
1,58513098833306E-8;
2,05266398147201E-8;
2,90995009949753E-8;
3,43811008449724E-8;
2,85356976547325E-8;
9,46761654663708E-9;
-1,65269338634975E-8;
-3,8195243547551E-8;
-4,65038280639193E-8;
-4,02585596891948E-8;
-2,60938968321341E-8;
-1,31306496875009E-8;
-6,58672016491587E-9;
-5,1671564465224E-9;
-3,75142638934617E-9;
1,36661845953318E-9;
9,23998422048015E-9;
1,5603203439598E-8;
1,72486728107086E-8;
1,53499326794029E-8;
1,46129427047982E-8;
1,88188102995846E-8;
2,66340753106822E-8;
3,15199542431348E-8;
2,63016752527019E-8;
9,01906006684969E-9;
-1,46316671350076E-8;
-3,441564485795E-8;
-4,21005325392456E-8;
-3,65808838103496E-8;
-2,38748231927028E-8;
-1,22583073301074E-8;
-6,44719275109401E-9;
-5,22433434386263E-9;
-3,9048239109025E-9;
8,73578339391436E-10;
8,21293521619085E-9;
1,4173754525135E-8;
1,57816169020435E-8;
1,40812118852734E-8;
1,33640931476996E-8;
1,71166442673033E-8;
2,4187351849333E-8;
2,86729769978608E-8;
2,40567734903262E-8;
8,51974544215977E-9;
-1,28273954264895E-8;
-3,07494250667535E-8;
-3,78018790955468E-8;
-3,29722133373033E-8;
-2,16737245257691E-8;
-1,13539535427341E-8;
-6,24068526739853E-9;
-5,19945487316272E-9;
-3,98158991055721E-9;
4,43279431187743E-10;
7,23028854845284E-9;
1,27673733611675E-8;
1,43215996876191E-8;
1,28117873354605E-8;
1,21228355111931E-8;
1,54443796273203E-8;
2,17907414305748E-8;
2,5878159261201E-8;
2,18339753232264E-8;
7,98338561994601E-9;
-1,11257171968111E-8;
-2,7232594576638E-8;
-3,36566169539828E-8;
-2,94728616865652E-8;
-1,95171204019283E-8;
-1,04340354680675E-8;
-5,97860062141503E-9;
-5,10590477847697E-9;
-3,99057675631048E-9;
7,40852481454812E-11;
6,29880310383974E-9;
1,14030447125867E-8;
1,28916911585478E-8;
1,15636111829637E-8;
1,09097226523581E-8;
1,3822756778202E-8;
1,94708924453466E-8;
2,31663848200378E-8;
1,96605250261137E-8;
7,42262092723885E-9;
-9,53744615928195E-9;
-2,38899570211018E-8;
-2,96955839936508E-8;
-2,61178157585568E-8;
-1,74297483509947E-8;
-9,51348357752228E-9;
-5,67568688861821E-9;
-4,95617868930471E-9;
-3,9433333744446E-9;
-2,38884670767636E-10;
5,42680477921524E-9;
1,00933706503829E-8;
1,15054907908936E-8;
1,03510890760928E-8;
9,73501686981133E-9;
1,22640649131516E-8;
1,72478159877859E-8;
2,0561387265463E-8;
1,75581331226718E-8;
6,8496140014814E-9;
-8,06605269742928E-9;
-2,07446684335036E-8;
-2,59494507476353E-8;
-2,29290757987002E-8;
-1,54301611104371E-8;
-8,60680231308498E-9;
-5,33921089887515E-9;
-4,75995175367309E-9;
-3,84916096119682E-9;
-4,99050787820845E-10;
4,61586557492138E-9;
8,84960016367004E-9;
1,01773793187195E-8;
9,18346190570019E-9;
8,60970803438291E-9;
1,07822341267769E-8;
1,51381623431261E-8;
1,8086315027198E-8;
1,55477576500304E-8;
6,27312490479398E-9;
-6,71555286499872E-9;
-1,78095223972886E-8;
-2,24360012092365E-8;
-1,99275501833835E-8;
-1,35335378017028E-8;
-7,72287422972638E-9;
-4,98216389124408E-9;
-4,52900015001782E-9;
-3,7154179686859E-9;
-7,12393770341604E-10;
3,86750647967443E-9;
7,67861511373228E-9;
8,91693026999431E-9;
8,07423832984838E-9;
7,54405617988303E-9;
9,3844978538855E-9;
1,31531443533879E-8;
1,57535779197338E-8;
1,36406559514061E-8;
5,70132609935459E-9;
0,00933342855993456;
0,0226297147323666;
0,0163727181062724;
0,00943307905018668;
0,0121693800360013;
0,0070261604596624;
0,0056348125190001;
0,00458270578247716;
0,00084049653804695;
0,00103239149071873;
-0,00119043631097744;
-0,00199194607200035;
-0,00280712920359444;
-0,00455367429373786;
-0,00488731845800816;
-0,00585589262776592;
-0,00594120597160349;
-0,00618247475099788;
-0,00699356482123494;
-0,00792069840632365;
-0,0093488923713345;
-0,0102429013112027;
-0,010518515550898;
-0,0101085376765571;
-0,00920767475179908;
-0,00843030286047545;
-0,00783043840386854;
-0,00745747549009446;
-0,00704805664210571;
-0,00641867808092202;
-0,00567545106705512;
-0,0049584816971551;
-0,00445307478618023;
-0,00409076136262737;
-0,00366382026143005;
-0,00302656056707057;
-0,00222822295566719;
-0,0015728175222255;
-0,00136106628449623;
-0,00166524097591181;
-0,00222572880561695;
-0,00258707210197337;
-0,00240677572181125;
-0,0016571968682868;
-0,000624742561174265;
0,000316664406705005;
0,000963659665281873;
0,00137586516655869;
0,0017651285909395;
0,00227846082613975;
0,0028737138470062;
0,00337821370022183;
0,00366494788179587;
0,00378443073312564;
0,00392475238030827;
0,004233453820289;
0,00465411116152703;
0,00492913917653039;
0,00478540474430204;
0,0041620599850792;
0,00329839161163217;
0,00260119665732739;
0,00238403585987898;
0,0026713244892163;
0,00320916349689091;
0,00366539098749933;
0,00385876478153702;
0,00384594124202929;
0,00381730208416684;
0,00390618770511261;
0,00407639082267425;
0,00417462376114906;
0,00408915283378468;
0,00386594281852337;
0,0036739547264445;
0,00364552409964017;
0,00373089034165956;
0,00370126425264588;
0,00331395614754762;
0,00251555842125937;
0,00151956264233419;
0,000688082339215253;
0,000299912860144046;
0,000376488315081593;
0,000692029163045083;
0,000951428481174242;
0,000993752147269051;
0,000869180382418373;
0,000746301935712404;
0,000742934631390127;
0,000826536997182234;
0,000860917923777632;
0,000746779273750746;
0,000524380293640427;
0,000342645046719913;
0,000317922629501953;
0,000405557786342442;
0,000402866861351182;
9,5125581005993E-5;
-0,000565177834362131;
-0,0107236175473785;
-0,0246910085960391;
-0,0187063611236595;
-0,0116223655556379;
-0,0139972434203623;
-0,00853592618080069;
-0,00701192404668347;
-0,00596902567341412;
-0,00223034238192901;
-0,00231727301152831;
8,97668334669354E-5;
0,001034638457954;
0,00186474596651657;
0,00353260545664927;
0,00382392922632937;
0,00488786626965628;
0,00516656666580206;
0,00552146127556395;
0,00617835754211214;
0,00664177532936334;
0,00746064826366674;
0,00787759259720807;
0,00802158139896546;
0,00784052542722663;
0,00735462084383546;
0,00695105321512913;
0,00655991546360399;
0,00626842922108335;
0,00594144850098257;
0,00548465691351176;
0,00497855112737282;
0,00445879834842765;
0,00403463919177321;
0,00366783588208423;
0,00326335628986196;
0,00276323719795344;
0,0021822729424109;
0,00167055380762927;
0,00136622801002633;
0,00130576291097359;
0,00137147127640293;
0,00134804133680692;
0,00107698743463069;
0,00054358047964089;
-0,000116337220038544;
-0,000724585364464228;
-0,00118434916640061;
-0,00152245160657053;
-0,00184024716968237;
-0,00220794578148344;
-0,00260531808069559;
-0,00294924031123656;
-0,00317776686784184;
-0,0033152322864065;
-0,00345292082070674;
-0,00366309065059627;
-0,00391871981496949;
-0,00409377564222955;
-0,00405387082567628;
-0,00376838140117021;
-0,00335502003238711;
-0,00301538630912938;
-0,00290603030192646;
-0,00304040856740485;
-0,00329291153574087;
-0,00349792851329977;
-0,00356466308079201;
-0,00352165118921962;
-0,0034652182371114;
-0,0034634012133835;
-0,00349853012341355;
-0,00349315001885389;
-0,00339049914408736;
-0,00321419406074912;
-0,00305115558362375;
-0,00297002016693921;
-0,00294586605221458;
-0,00286092278317511;
-0,00258939302026674;
-0,00210308999669172;
-0,00151283537859949;
-0,00100788074594906;
-0,000734997022335658;
-0,000706571896549095;
-0,000804733455399612;
-0,00087420404682128;
-0,000829831541877586;
-0,000698124529734043;
-0,000568860574799294;
-0,000505247980519473;
-0,000490307778914485;
-0,00045122464170499;
-0,000334547974341943;
-0,000161838546230304;
-1,36436668665028E-5;
4,66549760354843E-5;
4,29422666173125E-5;
8,55704623328846E-5;
0,000292252177599585;
0,00068973171208407;
0,00117541413967301;
0,00157388938538878;
0,00174942953597541;
0,00169131728120559;
0,00150982549113947;
0,00134983127724351;
0,00129097153708069;
0,00130920804902152;
0,00132184922394001;
0,00127090268449028;
0,00117271407479704;
0,00109530368410622;
0,00108867174541893;
0,00113332960207128;
0,00115522413126905;
0,00109623084819023;
0,000978922586596723;
0,000905712567009051;
0,000985678053866802;
0,00124377405365568;
0,00158554425699647;
0,00184943316345955;
0,0019106156063845;
0,00175959573318951;
0,00149834139518968;
0,00126056723025553;
0,00111977053276844;
0,00105394467585302;
0,000987126935207734;
0,000866118326833809;
0,000706078084723502;
0,000569605917356337;
0,000502666798627208;
0,000487363152131878;
0,00045572130486834;
0,000354429304672728;
0,000204209999488899;
9,89336009508002E-5;
0,000138467026065879;
0,000345512654758972;
0,000633405007504172;
0,000854137280590471;
0,000893434588109375;
0,000742588544947797;
0,000494783922907892;
0,000272121258674708;
0,000141578836586557;
8,2868426443327E-5;
2,64712008911398E-5;
-7,63042858943661E-5;
-0,000211769943095517;
-0,000323009391307203;
-0,0003683219756179;
-0,000364219420007534;
-0,000372793700032145;
-0,000442733476198234;
-0,000555323900842295;
-0,000625343570376318;
-0,000562199006967852;
-0,000345503031588574;
-5,42343272416732E-5;
0,000177003007278743;
0,000244347516714796;
0,000139817028724508;
-5,21461604022525E-5;
-0,000220953394744852;
-0,000306058881523937;
-0,000326012591087416;
-0,000343917727660359;
-0,00040396359207395;
-0,000493856929225085;
-0,00056221604516716;
-0,000571456111413487;
-0,00053662446859423;
-0,000513920109755604;
-0,000547380834493893;
-0,000620160193057527;
-0,000655417319545024;
-0,000571530799967861;
-0,000350239061620718;
-6,28348088267958E-5;
0,000169351335417187;
0,0002527822021715;
0,000180304447831432;
2,79301623505642E-5;
-0,0001048730370517;
-0,00016370045285421;
-0,000165258499322478;
-0,000166248924711446;
-0,000206337510869209;
-0,000274462203907288;
-0,000324503506885055;
-0,000322751921495438;
-0,000282699892041373;
-0,000254693272338567;
-0,000278136894694527;
-0,000337892210013987;
-0,000365146314711909;
-0,000286870595861545;
-8,67511730802305E-5;
0,000171474287285463;
0,00037942286420612;
0,000453625993787472;
0,000387795083777038;
0,000249850769721465;
0,000128576509609462;
7,25116059924483E-5;
6,67927145975349E-5;
6,09491652846869E-5;
1,9721790389664E-5;
-4,69764958889873E-5;
-9,80601280130569E-5;
-0,000103516321712393;
-7,53102119280399E-5;
-5,81347327578898E-5;
-8,69268974762021E-5;
-0,000148181097753094;
-0,000180786248021378;
-0,000119950725418364;
4,87826836797409E-5;
0,000268927256801494;
0,000444504274079224;
0,000501672580077222;
0,000434946009856039;
0,000304475643788116;
0,000188803402894395;
0,000130842604495907;
0,00011747181313003;
0,000104147323699428;
5,97865145555048E-5;
-6,82719691833355E-6;
-5,94413469378662E-5;
-7,15972619982535E-5;
-5,38352684729766E-5;
-4,54986557163638E-5;
-7,73098773410187E-5;
-0,000137357073432475;
-0,00017189092847822;
-0,000123981457952077;
1,90363263009252E-5;
0,000207532246446453;
0,000357266521096314;
0,000403489935341407;
0,000341431572788337;
0,000223834190581502;
0,000119498574316338;
6,59780486352887E-5;
5,1770239601717E-5;
3,79082075999023E-5;
-2,77397056194671E-6;
-6,25937646893842E-5;
-0,000109895673259048;
-0,000121604042032421;
-0,000106938190901933;
-0,000100217962525478;
-0,000128216845036438;
-0,000180551576094201;
-0,000210432761371308;
-0,000168352269189971;
-4,33442530852151E-5;
0,000121403271375562;
0,000252679747989003;
0,000294267011274129;
0,000242046204881928;
0,000141782068161517;
5,31150066446557E-5;
8,55972161696862E-6;
-1,87169556941315E-6;
-1,19208726345347E-5;
-4,50882275307062E-5;
-9,47289776283844E-5;
-0,000133497174610847;
-0,000141484959150416;
-0,00012667361907629;
-0,000118682127526977;
-0,000140591279511331;
-0,000183446909672341;
-0,000206960339785205;
-0,000168548514067965;
-5,88216531151943E-5;
8,50546401287367E-5;
0,000200165731959484;
0,000238251858362802;
0,0001958036967149;
0,000112087882568713;
3,82205625820425E-5;
2,03596507528502E-6;
-5,03348530946898E-6;
-1,18591945338625E-5;
-3,85253103261034E-5;
-7,93437352745016E-5;
-0,000110963018620016;
-0,000116406047371432;
-0,000102493269584639;
-9,44713446338695E-5;
-0,000111987536095132;
-0,000147404924205497;
-0,000166450400151074;
-0,0001329445084014;
-3,89432418850754E-5;
8,39756170803475E-5;
0,000182434211435529;
0,000215540087808036;
0,000180351859453359;
0,000110135652883494;
4,81398681614669E-5;
1,78854576629074E-5;
1,21248485442888E-5;
6,48773878552067E-6;
-1,59535959875176E-5;
-5,0388326138341E-5;
-7,71409210071331E-5;
-8,19277332579241E-5;
-7,0493749116844E-5;
-6,40557973763577E-5;
-7,90985866922535E-5;
-0,000109194474076194;
-0,000125598059623871;
-9,80101775135693E-5;
-1,98088311282207E-5;
8,25651906136716E-5;
0,000164491494253936;
0,000191837994300337;
0,000162182683033237;
0,0001032887139535;
5,11938855780534E-5;
2,54691029860205E-5;
2,00771145462966E-5;
1,47682175852301E-5;
-4,49824692874558E-6;
-3,37156414156952E-5;
-5,65706070637008E-5;
-6,12415094465437E-5;
-5,24908987597739E-5;
-4,78564349193178E-5;
-6,09382363231509E-5;
-8,64152905808423E-5;
-0,000100586805158003;
-7,85161088920834E-5;
-1,47857234259845E-5;
6,88440261906535E-5;
0,000135726959763583;
0,000157881893264698;
0,000133354798174342;
8,48987736521486E-5;
4,19921542688779E-5;
2,06137244226172E-5;
1,58241669047192E-5;
1,11135655674471E-5;
-4,94122197080757E-6;
-2,90669995931584E-5;
-4,80032237765943E-5;
-5,2162697361756E-5;
-4,54191687183427E-5;
-4,19791052547418E-5;
-5,2833314667287E-5;
-7,36661384579803E-5;
-8,53446680050366E-5;
-6,77844007374867E-5;
-1,6657184409077E-5;
5,05070022959645E-5;
0,000104265430082857;
0,000122189374787326;
0,000102743967703259;
6,41583281725885E-5;
2,99921274163277E-5;
1,29843701849027E-5;
9,18456107733593E-6;
5,450752357101E-6;
-7,28491158489808E-6;
-2,64114539470907E-5;
-4,14166566866699E-5;
-4,47235798344526E-5;
-3,94069870309707E-5;
-3,66800504306814E-5;
-4,51907177039879E-5;
-6,15276289755616E-5;
-7,06589926349786E-5;
-5,68536314770399E-5;
-1,67591444913473E-5;
3,58883707673361E-5;
7,81020142139322E-5;
9,24262854567077E-5;
7,77006525518593E-5;
4,81045432910455E-5;
2,19027070710341E-5;
8,93770205767145E-6;
6,14366292147443E-6;
3,3881409399441E-6;
-6,29346012506084E-6;
-2,0881676152164E-5;
-3,23165780646829E-5;
-3,48134768451093E-5;
-3,0733683582548E-5;
-2,86219946196794E-5;
-3,50391820692138E-5;
-4,73793217841419E-5;
-5,42606895868943E-5;
-4,38241040867044E-5;
-1,35830733092462E-5;
2,61006277492499E-5;
5,79775492737131E-5;
6,90095596003011E-5;
5,83684855942706E-5;
3,66404808690604E-5;
1,73946645650196E-5;
7,90681317440925E-6;
5,89596516917615E-6;
3,89586046163599E-6;
-3,1959331365181E-6;
-1,38834651499912E-5;
-2,22756616484476E-5;
-2,417163145833E-5;
-2,1301164835978E-5;
-1,98512654890871E-5;
-2,45397376651517E-5;
-3,34717224065575E-5;
-3,84853591503899E-5;
-3,11348624950185E-5;
-9,69558676274395E-6;
1,84446315591626E-5;
4,10892020162831E-5;
4,90880427902008E-5;
4,19053055885072E-5;
2,69677199827255E-5;
1,37180213450492E-5;
7,17783001875309E-6;
5,75575558889619E-6;
4,32531387690603E-6;
-5,82939261278972E-7;
-7,9324911054436E-6;
-1,37329617619172E-5;
-1,51703715651759E-5;
-1,34212254088614E-5;
-1,26093038622336E-5;
-1,58409555025008E-5;
-2,18435321961122E-5;
-2,52688413038175E-5;
-2,06517960386111E-5;
-6,93206252809146E-6;
1,1097732139341E-5;
2,56472944975558E-5;
3,09549781040645E-5;
2,67392744251596E-5;
1,7676088458999E-5;
9,61761100312541E-6;
5,62519392306446E-6;
4,70682973526107E-6;
3,76835972161423E-6;
7,57558510907546E-7;
-3,68849613408543E-6;
-7,22844760038227E-6;
-8,25065940946466E-6;
-7,4521329256319E-6;
-7,1700893366168E-6;
-9,11671102798605E-6;
-1,25583577066468E-5;
-1,45799730958042E-5;
-1,22920878955242E-5;
-5,20768083449813E-6;
4,12107805467497E-6;
1,17051281575194E-5;
1,47040172498866E-5;
1,30551413618601E-5;
9,06542736646983E-6;
5,49698309371034E-6;
3,72519743717365E-6;
3,27321775345533E-6;
2,79243371969612E-6;
1,44674177152043E-6;
-4,70181152818685E-7;
-2,03143821873236E-6;
-2,65582127135489E-6;
-2,62949785437158E-6;
-2,7605015224223E-6;
-3,56881674315548E-6;
-4,78226006121159E-6;
-5,56510798217324E-6;
-5,22711407095539E-6;
-3,77004964012587E-6;
-1,83493163106923E-6;
-1,70947497336714E-7;
8,69433865267485E-7;
1,4098731875403E-6;
1,74239851290987E-6;
2,00279943518432E-6;
2,13461597922878E-6;
2,09830231705981E-6;
2,02561041957628E-6;
2,11075962205346E-6;
2,35603893380176E-6;
2,49081574421318E-6;
2,22479675350844E-6;
1,61934020008361E-6;
1,15815446502647E-6;
1,32726879901253E-6;
2,00911904101613E-6;
2,28645622223985E-6;
9,97282492795795E-7;
-2,2710742417976E-6;
-6,55168983626683E-6;
-9,8705517823724E-6;
-1,04906584022864E-5;
-8,13198943449168E-6;
-4,19177275812011E-6;
-7,34250454476364E-7;
9,85770076397132E-7;
1,29462075336624E-6;
1,56107225002556E-6;
2,83929995334007E-6;
4,88801178403983E-6;
6,43800717110821E-6;
6,47318227135766E-6;
5,34443106098444E-6;
4,60979029622588E-6;
5,59093041039132E-6;
7,84622978460338E-6;
9,00403487882233E-6;
6,36736915765939E-6;
-8,16172815317063E-7;
0,00932318525584584;
0,0226120246601344;
0,0163530146284769;
0,00941720401655156;
0,0121603886081777;
0,00702323601401216;
0,00563490018630779;
0,00458337711058329;
0,000841704959858849;
0,00103584791483779;
-0,00118346176940781;
-0,00198226803259653;
-0,00279717018579077;
-0,00454526953303488;
-0,00487987046391919;
-0,00584680315236204;
-0,00592858245564136;
-0,00616797712675975;
-0,00698279416057802;
-0,00792028244736479;
-0,00936208354593373;
-0,0102669071508978;
-0,0105456882386547;
-0,0101307165822716;
-0,00922060990402837;
-0,00843507653477724;
-0,00783116465862523;
-0,00745739996560631;
-0,00704722756703872;
-0,00641482114152292;
-0,00566689358344969;
-0,00494629029787421;
-0,00444039815829029;
-0,0040799716382788;
-0,00365415786966205;
-0,00301472347579782;
-0,00221182561952686;
-0,00155396687079402;
-0,00134679910993527;
-0,00166383812321606;
-0,0115746756878725;
-0,0252457969290631;
-0,0188126008422413;
-0,0111174896280233;
-0,0128102490351206;
-0,00671582241455677;
-0,00467262124193664;
-0,00320733476686264;
0,000925064216963189;
0,00125014363007592;
0,00407385457118868;
0,00538423251500067;
0,00648680540778011;
0,00835069983734681;
0,00882341658615139;
0,0101032889733833;
0,0106146226546116;
0,0111338313786288;
0,0117959573952178;
0,0120849643866471;
0,0126300403261582;
0,01281132319361;
0,0128649597553919;
0,0127488251544014;
0,0123982633487413;
0,0120881434266672;
0,0116871174787247;
0,0113024366592782;
0,0108654374203054;
0,0103290481388997;
0,00976235066050858;
0,0091485352071312;
0,00855844962980364;
0,00797062228368241;
0,00735036494621036;
0,00668759019701705;
0,00598057832112104;
0,005298803971101;
0,00469405639373157;
0,00418366936543901;
0,0130603144950958;
0,0258694556734424;
0,0190386416534331;
0,0114330050258754;
0,0134658158623251;
0,00765247152891635;
0,00566234245223713;
0,00407465753098104;
-0,000178539813127138;
-0,000498915686801567;
-0,00322657884260216;
-0,00449289613744701;
-0,00570805531254051;
-0,00779889213245734;
-0,00845596534859594;
-0,00975482188510669;
-0,0101667845882571;
-0,0106822716817269;
-0,01166335358486;
-0,0126445253159452;
-0,0140565553268953;
-0,0149424771879679;
-0,0152790079077852;
-0,0150046863626106;
-0,014266210540547;
-0,0136145420584724;
-0,0130692373711966;
-0,0126914004615344;
-0,0122556526022268;
-0,0116055589014343;
-0,0108411965309485;
-0,0100735355638075;
-0,00946676025448719;
-0,00896238432416014;
-0,00838716283634406;
-0,00762282234550547;
-0,00670983453955199;
-0,00590752024934324;
-0,00546879891357063;
-0,00545588971071462;
-0,00565289752531608;
-0,00567841477855682;
-0,00524754502267672;
-0,00433822714415344;
-0,00319202190625868;
-0,00212350637377736;
-0,0013038111988034;
-0,000684267244931919;
-8,84369738919599E-5;
0,000605595350166364;
0,00136165573438743;
0,00203468864889593;
0,00251783520634381;
0,00285275864695902;
0,00319589868830456;
0,00366982882563852;
0,00422697876309516;
0,00465212448071311;
0,00471736927668639;
0,00437190502026064;
0,00381501008154885;
0,00338532125903407;
0,00334365530658029;
0,00371013960892345;
0,00427347477048722;
0,00475751795235048;
0,00501179068890106;
0,00508357589794481;
0,00513119220594724;
0,00526551895558478;
0,00545671477134404;
0,00557789654980931;
0,00553676767592385;
0,00537182392493584;
0,00522344013933708;
0,00520156490388084;
0,00526533993784258;
0,00522582226111197;
0,00488274536959561;
0,00419252187680413;
0,00333219992609418;
0,002601478195175;
0,00223101437443891;
0,00223883491916631;
0,00243896063050958;
0,002588372108015;
0,00255485616240031;
0,00238028007918647;
0,00220400958536093;
0,00212348054345175;
0,00211228107710217;
0,00205873713595531;
0,00188160277189396;
0,00161441662717659;
0,00137996750773434;
0,00127416530138417;
0,001260628055677;
0,00117329473975748;
0,000836355557893442;
0,000211255778495027;
-0,00988104567783069;
-0,0238085984338085;
-0,017854525278034;
-0,0108746570432747;
-0,013390840561942;
-0,00806045605435993;
-0,00663089434660568;
-0,00565370987494054;
-0,00197888266878673;
-0,00214658819526624;
0,000168188884279724;
0,00103149951801017;
0,00180700697155046;
0,00344087760895263;
0,00369478466261638;
0,00469905017138621;
0,00490315840120416;
0,00520166414097237;
0,00585554165613702;
0,00637718987803602;
0,00728484516777982;
0,00776886562400165;
0,00791794934052904;
0,00767698543811435;
0,00709902157889828;
0,00661420148006439;
0,0061760944318921;
0,0058646577904554;
0,00552018436316318;
0,00503116080401108;
0,00448283187676633;
0,0039307821268554;
0,00349878784101367;
0,00314269067183759;
0,00274556140700245;
0,00223228325014192;
0,0016241559105278;
0,00110106136595824;
0,000832756208588704;
0,000862667962845632;
0,00104527975195671;
0,00111805417201434;
0,000886141569276867;
0,000332055827979135;
-0,000378805815878024;
-0,00102963683520629;
-0,00150255848076344;
-0,00183099002191052;
-0,0021384153106847;
-0,0025105240630769;
0,00641060210514026;
0,0193553900221798;
0,012882666750204;
0,00583341005921081;
0,00845528007754953;
0,00310520129817744;
0,00144744952754666;
0,000222138074328258;
-0,00343738076842278;
-0,00287005195248817;
-0,0139007440551454;
-0,0275666459558115;
-0,021975592222492;
-0,016931749607519;
-0,0202973550216625;
-0,0163646260434735;
-0,0151371272842858;
-0,0142758218595297;
-0,0112812345727673;
-0,0124055624545067;
-0,0116634684958298;
-0,011762318068828;
-0,0111145009426222;
-0,00876343901647198;
-0,00735243024278984;
-0,00553023828259367;
-0,00483886823073941;
-0,00414694348783437;
-0,00262627152749242;
-0,000513389896668151;
0,00233773378063977;
0,00452513018516264;
0,00560383657065271;
0,00556071190346943;
0,00493957505868253;
0,00468640012505826;
0,00490782026776765;
0,0053175762484258;
0,00524445517096902;
0,00435738748859522;
0,00304252894781954;
0,00198239732115093;
0,0017685452139359;
0,00233446916618056;
0,00309017538592349;
0,0034407358245273;
0,00326059667862787;
0,00304470064623054;
0,00344548021476686;
0,0047138321559842;
0,0157594429330988;
0,0303753779015577;
0,0244150971476075;
0,0167596557315239;
0,0183730728573788;
0,012393102986468;
0,0106923540792653;
0,00951244082870382;
0,00524114337539325;
0,00422624230575983;
0,000419716720839318;
-0,00168254066292157;
-0,00301595660721956;
-0,00454741998327472;
-0,00446209602448125;
-0,00535605899974574;
-0,0058092779129629;
-0,0064260535468567;
-0,00702838631854623;
-0,00693915232911968;
-0,00693023320969677;
-0,00671659530136773;
-0,00678601903136713;
-0,00706075277933009;
-0,00719272067663846;
-0,00717476901509001;
-0,00684325940862878;
-0,00655897520279104;
-0,00658078863167402;
-0,00697431290320098;
-0,00757818995421462;
-0,00794384446019502;
-0,00781233428901333;
-0,00716076464371592;
-0,00625570781183727;
-0,005441226783907;
-0,00485349269830596;
-0,00440794295363806;
-0,00387757187242839;
-0,00313714037124191;
-0,00227432688848919;
-0,00150458080638315;
-0,000996575100271675;
-0,000713823914027625;
-0,000459416322895642;
-5,3709790051675E-5;
0,000494044735120975;
0,00096692342524018;
0,00111262617509846;
0,000856289751939716;
0,000392090832096841;
6,82044625804254E-5;
0,0001500708011556;
0,000646682912529336;
0,00132558949705579;
0,00190123243445264;
0,00224144872556873;
0,00243353904433914;
0,00267133183344581;
0,00306770818148502;
0,0035534473801851;
0,00394113319076613;
0,0040920927097914;
0,0040385809367652;
0,00395385326126695;
0,00399500082792452;
0,00415297079706558;
0,00424162700265965;
0,00404308090613253;
0,00349534827596875;
0,002769568953611;
0,00216949708985986;
0,0019273224709145;
0,00205196414642606;
0,00234337885137139;
0,00255491616899828;
0,0025719391285759;
0,00246936984453816;
0,00241423121478388;
0,00250478211950737;
0,00268326385533673;
0,00279066400780686;
0,00270967503736522;
0,00246884646572529;
0,00221657552950017;
0,00208630174399002;
0,00206862966380779;
0,00200288330129486;
0,00170220254184616;
0,00111424536365906;
0,000386658262068678;
-0,000219645206636162;
-0,000505561842133782;
-0,000463536114846458;
-0,000265132765841191;
-0,000122196941235099;
-0,000134235266027472;
-0,000239096833381535;
-0,000295664918181691;
-0,000220478320904746;
-0,00939529815424169;
-0,022583416804681;
-0,0163673223125823;
-0,00959340302787829;
-0,0124955710467756;
-0,00740733429868672;
-0,00597025150756872;
-0,00490930008583111;
-0,00135380960546953;
-0,00197194862391513;
-0,000289425669833362;
7,86702114938396E-5;
0,000735586176333845;
0,00260510515129592;
0,00319755562219076;
0,00438100817569458;
0,00455179602615068;
0,00479966318809748;
0,00565587450093394;
0,00673656907891435;
0,00838712339287054;
0,00946154404803854;
0,00979420025579796;
0,00933838787797825;
0,0083920399154903;
0,0076604474528107;
0,00718722968378174;
0,00690575875560537;
0,00642019624728069;
0,0055110471881605;
0,00438984166624239;
0,00338134217962078;
0,00281121658416121;
0,00261614912623279;
0,00246738349558367;
0,00206930638736719;
0,00139904809545766;
0,000801072851952259;
0,000672335849921049;
0,0011430588743229;
0,0112556445528983;
0,0250946395664005;
0,0187359358752161;
0,0110399461989336;
0,0127358013204079;
0,00671507415781379;
0,00480241863130891;
0,00342963136705068;
-0,000752807446940617;
-0,00129620033173998;
-0,00441982282713753;
-0,0059630803217007;
-0,00711870586566923;
-0,00885036604410182;
-0,00910053971144157;
-0,0101871590944479;
-0,0105952846857625;
-0,0110749207579631;
-0,0116895023117261;
-0,0118771527581145;
-0,0122861182459245;
-0,0123581048750056;
-0,0123735080637076;
-0,0122748557097414;
-0,0119359222336987;
-0,0115817041114566;
-0,0110946300638389;
-0,0106584666720776;
-0,0102867452969359;
-0,00995109141233426;
-0,00965033932764425;
-0,00924906472378184;
-0,00872830063351202;
-0,00806161255485226;
-0,0072887584961899;
-0,00649430367905978;
-0,00572617782488976;
-0,00503587961084818;
-0,00442117966459621;
-0,00386340384956201;
-0,0126672782276162;
-0,0254219722512222;
-0,0185859514098936;
-0,011011536291861;
-0,0130662874127706;
-0,00723057445968272;
-0,0051874624191322;
-0,00357630798328287;
0,000608403310971319;
0,000755701560055435;
0,00326107333655182;
0,00434755307622474;
0,00549449893777839;
0,00763311234662501;
0,00839766353197181;
0,00979119669982515;
0,0102453014519619;
0,0107609546450075;
0,0117386419083422;
0,0127400163779395;
0,0235231688670161;
0,0377323526360472;
0,0318087452560806;
0,0245719545042952;
0,0265589614666058;
0,0207872908491979;
0,0188943926599413;
0,0174831317970616;
0,0132537190351249;
0,0126664909501139;
0,00951477660406784;
0,00781332214536447;
0,00634215905931665;
0,00412886587744939;
0,00330414155598974;
0,00164893322981395;
0,00069101794987782;
-0,000345325706580546;
-0,00159626832243703;
-0,0025264787232425;
-0,00373793884542501;
-0,00459165335960156;
-0,00529777538782972;
-0,00580288464006549;
-0,00604061346988061;
-0,00629994490070971;
-0,00647690530434267;
-0,00670234716836706;
-0,00691920687000586;
-0,00706885242226082;
-0,00719086649039026;
-0,0072335649616704;
-0,00724062571284111;
-0,00718204408322349;
-0,00703288811788538;
-0,00680583024335374;
-0,00652554723442061;
-0,00628203241290619;
-0,00613509048395841;
-0,00609365897720204;
-0,00609421175401378;
-0,00602333487338938;
-0,00580033595201571;
-0,00541129548407725;
-0,00492225834956579;
-0,00442969865875406;
-0,0039991271245924;
-0,00363976082685554;
-0,00331473084583827;
-0,00298703536753478;
-0,00264884775562305;
-0,00231745345189341;
-0,00200673556257289;
-0,00170196914187858;
-0,00136969345777012;
-0,000993200705708712;
-0,000604108324428941;
-0,000276728725094845;
-8,09169561876356E-5;
-2,72719155056184E-5;
-4,68262759708099E-5;
-2,62474921989877E-5;
0,000123517251037582;
0,000413617305404584;
0,000776334517414128;
0,00111586563364513;
0,00137118130132281;
0,00154524051202742;
0,00168370090122049;
0,00182654369625845;
0,00197527252461697;
0,00210111375183245;
0,00218244576965374;
0,00223394662982378;
0,00229786381587115;
0,00240252079935046;
0,00252454643733465;
0,00259189216632419;
0,00253226658336165;
0,00233246826402614;
0,00206118361905202;
0,00183336187407049;
0,00173910837371597;
0,00178836761865051;
0,00191140276576017;
0,00201270560352234;
0,00203602692930207;
0,00199220939741742;
0,00193334592676343;
0,00189992716133225;
0,00188696162947717;
0,00185569760118494;
0,00177687040837037;
0,00166408497711735;
0,00156509742542693;
0,00151647479542438;
0,00150110601170815;
0,00144871946396592;
0,00128508584678252;
0,000993936976153964;
0,000641746445336439;
0,000342208295581084;
0,000184046694632229;
0,000175188468570847;
0,000244323955770974;
0,000296732837276265;
0,0002801630842803;
0,000211106281872644;
0,000145554634391715;
0,000123129086535912;
0,000132808473052307;
0,000127410465823752;
7,1085145063116E-5;
-2,42273692881452E-5;
-0,000107382976593076;
-0,000135926779989316;
-0,000121926727413079;
-0,000133561218189936;
-0,000245987301945967;
-0,000478153562903168;
-0,00076670878625725;
-0,00100091957307786;
-0,00109472364061982;
-0,0010421838150594;
-0,000915053645617939;
-0,000806158488230403;
-0,000763757660254742;
-0,000766947288311784;
-0,000757324689645272;
-0,000696582661058942;
-0,00993405298734941;
-0,0231526917494644;
-0,0168771481279648;
-0,00996762372920258;
-0,0127293744264011;
-0,00756005932322342;
-0,00609860916011497;
-0,00499768404843596;
-0,00130262718425439;
-0,00165839512274129;
0,000343841004337714;
0,000974891491651858;
0,00175255225359026;
0,0035989253075902;
0,00409889231841046;
0,00521061790275439;
0,00537192068203304;
0,00564654341629247;
0,00650816669917398;
0,00753991243701203;
0,00910729554899317;
0,0101172468109147;
0,0104414378897683;
0,010021927638766;
0,00910803474788174;
0,00836427475112554;
0,00784125579989355;
0,00752666259562746;
0,0070841308695002;
0,00630839615651551;
0,00536209408235474;
0,00448758136777147;
0,00394923607081991;
0,00368184866305553;
0,00340879048859397;
0,00289880220252586;
0,00216148980280306;
0,00152820893212972;
0,00135995099320142;
0,00176430556450869;
0,00245953894471292;
0,00292970886876958;
0,00278614464319622;
0,00200941193984334;
0,000940885804972331;
6,69911333410143E-6;
-0,000589623186769854;
-0,000965470530078312;
-0,00140319672455909;
-0,00207207796969513;
-0,0028771498661787;
-0,00354879874925845;
-0,00388518820885896;
-0,00393457383548178;
-0,00395132381551102;
-0,0041638895040799;
-0,00455128106271682;
-0,00482662609539674;
-0,00465703637359742;
-0,00394820601431387;
-0,00296344617312652;
-0,0021714323124714;
-0,00193300592010608;
-0,00226542622146284;
-0,00286037924094463;
-0,00333256856199052;
-0,00349765939289257;
-0,00346599705101645;
-0,00349541930956394;
-0,00374169985391342;
-0,00411975030035761;
-0,00438525416752213;
-0,00435635157367158;
-0,00407767617404219;
-0,00378136792560974;
-0,00367566860826146;
-0,00374229033725588;
-0,00372201995393069;
-0,00331376701731318;
-0,00243276228564642;
-0,00131782367534338;
-0,000393274955286247;
1,45024757042266E-5;
-0,000109817892820291;
-0,000487350647797142;
-0,000769900946880104;
-0,000791079204376625;
-0,00065060972494724;
-0,000581055818183104;
-0,000722532520205268;
-0,000997662707312774;
-0,00118552834575107;
-0,00112168201621667;
-0,00084587411268923;
-0,000566726455173076;
-0,000471236251648583;
-0,000542478008544573;
-0,000546856477874933;
-0,000213242410024044;
0,000535016787681635;
0,00148399983206414;
0,00225349155752569;
0,00255148163367108;
0,00236514572627326;
0,00194535037229646;
0,00160475988173525;
0,00149284449550677;
0,00152066703296427;
0,00148054927427555;
0,00124782272006803;
0,000892531215605338;
0,000613003317614939;
0,000556877476253026;
0,000689154003873132;
0,000823952539206639;
0,000794742478320175;
0,000616996850579758;
0,000499383645854615;
0,000683893832089884;
0,0012391092535175;
0,00197483491598151;
0,00255302574766933;
0,0027143730114969;
0,00244800741098379;
0,00197736946884923;
0,00158050405772251;
0,00139019047513735;
0,00132742544078935;
0,00120796396078474;
0,000921452543114127;
0,000530355286271685;
0,000210792240316768;
9,37651899602284E-5;
0,000148324371300896;
0,000209875969264255;
0,000130986826304055;
-7,47524581323755E-5;
-0,000222992895246934;
-0,000100057079029875;
0,000354477290928763;
0,00097262007763697;
0,00145610871864751;
0,0015763534680936;
0,00132388135521602;
0,000895562426475024;
0,000536081155169482;
0,000361985400132914;
0,000303406267979328;
0,000198067087979976;
-5,11066263705122E-5;
-0,000389182878528602;
-0,000661442789552572;
-0,000752948087376322;
-0,000691035255530569;
-0,000620309174530574;
-0,000670281606069313;
-0,00082931554818976;
-0,000936246533029246;
-0,000804327610649159;
-0,000380960209928777;
0,000186776951465209;
0,000638140131987473;
0,000773472489391226;
0,000584531749237315;
0,000243041216020874;
-3,78166744472551E-5;
-0,000156786263427445;
-0,000175085437228596;
-0,000234250406541092;
-0,000418822797771707;
-0,000680945802362115;
-0,000886015333612242;
-0,000934151485100543;
-0,000849210080512203;
-0,000756904783714556;
-0,000769800020533377;
-0,000877983624024434;
-0,000941941938456583;
-0,00080007484953423;
-0,000406988942187529;
0,000109976885915565;
0,000525364049572803;
0,000666728983603808;
0,000527086112932381;
0,000254736595309956;
3,35268619797777E-5;
-4,94312693810359E-5;
-4,71059721906277E-5;
-8,15037364513846E-5;
-0,000225333434260586;
-0,000437234929274655;
-0,000601270198929162;
-0,000631490072716211;
-0,000548374091569453;
-0,000459890046578398;
-0,000462678388000158;
-0,000548308290902519;
-0,000597303685529578;
-0,000471349206796871;
-0,000131639083612449;
0,000312948964515811;
0,000669842665030564;
0,000791954023500886;
0,000673526531305653;
0,000441182721746817;
0,000251623648500856;
0,000178929271401313;
0,000177866581336354;
0,000144599452102806;
1,7427562310307E-5;
-0,000168278357558888;
-0,000313838891554756;
-0,000346169276513888;
-0,000282590768411163;
-0,000214623956821952;
-0,000224156380499033;
-0,000304098512973542;
-0,000353458562350448;
-0,0002553990706508;
2,28208485565126E-5;
0,00038935864986119;
0,000681958128720016;
0,000776880948760677;
0,000669476300005987;
0,000466379317694521;
0,000299290502295912;
0,00023029656296458;
0,000221278389006435;
0,000185093837446229;
7,01294548434045E-5;
-9,37920536097636E-5;
-0,000223889827371768;
-0,000258930374248414;
-0,000213367431765717;
-0,000163658237870958;
-0,000178186005670779;
-0,000251117345480535;
-0,0002984259210233;
-0,000222975495697225;
2,39164510345934E-6;
0,000301388360210192;
0,000539449566958442;
0,000614139499398053;
0,000521767345554629;
0,000350661848868302;
0,00020965821143198;
0,000149873287180049;
0,000139662452632959;
0,000107087347441839;
9,69454370764014E-6;
-0,000127798192706523;
-0,000237144620243929;
-0,000267945518509079;
-0,000232072121207782;
-0,00019229188930739;
-0,000204718619329439;
-0,000264677773102725;
-0,000303582442716908;
-0,000242215151548275;
-5,85058279810857E-5;
0,00951879773099726;
0,0230096676130652;
0,0168148174983174;
0,00980204075863404;
0,0124016377593792;
0,00714626052657094;
0,00570848658958728;
0,0046499073436533;
0,000882997469128951;
0,000997783904185285;
-0,0106679123135587;
-0,0248523887535769;
-0,0194338888846818;
-0,0142102828347774;
-0,0172462968789264;
-0,0130793385172475;
-0,0118189730560351;
-0,011037111593534;
-0,00805519884720732;
-0,00902616905915155;
-0,0080356881491938;
-0,00797140650875539;
-0,0073798988203372;
-0,0052783686875263;
-0,00414900254958069;
-0,00248884912660482;
-0,00183783619151113;
-0,00122663194297736;
-2,38306554663079E-5;
0,00147354358738722;
0,00356031823777244;
0,00510443119305714;
0,00586818321047582;
0,00584540038915251;
0,0053991937757009;
0,00525453215398939;
0,0054189172014036;
0,00567997643866583;
0,00552228596437986;
0,00470348471409116;
0,00355118135978806;
0,00259427492192422;
0,00231029009000643;
0,00265698773813492;
0,00318370963675192;
0,00342375645630444;
0,00324736852231646;
0,0030024186239015;
0,00316668115875618;
0,00393930368984491;
0,00503073982172644;
0,00584564527192071;
0,0059385162490289;
0,00532664432397063;
0,00445506558690336;
0,00381897887779949;
0,00356725500243693;
0,00341391672418634;
0,00290986330095347;
0,0018570398635199;
0,000508827028784352;
-0,000604100319139259;
-0,00107773517373261;
-0,000938995278145322;
-0,000598167816672012;
-0,000496685378972017;
-0,000741981251542921;
-0,00103138585513193;
-0,000926449406817985;
-0,000247288500399746;
0,000739538422618663;
0,00149746793479811;
0,00161832083710442;
0,00111970597448177;
0,000403697339250335;
-8,36983659889944E-5;
-0,000209763006276468;
-0,000238385266984224;
-0,000577974797330231;
-0,00140864649614182;
-0,00249993282095019;
-0,00336956644352945;
-0,00365157735007873;
-0,00337080165501583;
-0,00290058534302825;
-0,00264291416832732;
-0,00269767447021846;
-0,00279380080240197;
-0,00253657478838794;
-0,00176398950721549;
-0,000716017434991362;
0,000124458475279691;
0,000390441258911982;
9,82397102643797E-5;
-0,000390669399957358;
-0,000676546693233003;
-0,000642476106963089;
-0,000528176477849605;
-0,000702052430616716;
-0,00132555803933938;
-0,00218986519435637;
-0,00285971525360636;
-0,00300511979969262;
-0,00264825540349824;
-0,00212522272927613;
-0,0017983976490487;
-0,00175922490883519;
-0,00176616345957116;
-0,00146614905843712;
-0,000713690734430422;
0,00027767624685637;
0,00107766040463968;
0,00135973059876732;
0,00113947333214191;
0,000739788548565823;
0,000516504704354042;
0,000572206248407641;
0,000691442528935643;
0,000545139508654632;
-9,7052298600521E-6;
-0,000784934448886415;
-0,0013904815376441;
-0,00153080740924354;
-0,00122512603337276;
-0,000773114172440475;
-0,000498408480317608;
-0,0004837575734131;
-0,000515545450322921;
-0,0002804180161685;
0,000351432862753332;
0,0011919078200597;
0,00186114390451263;
0,00207135127438662;
0,00183740378259022;
0,00144534010845857;
0,00120917360705041;
0,00121808082319874;
