1,37768765878186E-9;
2,92415896766551E-9;
3,47889527103724E-9;
2,96544772678165E-9;
1,8817239902001E-9;
9,04938727237784E-10;
4,15625493779516E-10;
3,10555801373863E-10;
2,04690505259789E-10;
-1,80232738661428E-10;
-7,73416956405947E-10;
-1,25130585938341E-9;
-1,36895158659832E-9;
-1,21464156254533E-9;
-1,14335249845854E-9;
-1,43830689400108E-9;
-1,99890555295528E-9;
-2,3311865291091E-9;
-1,89310517037504E-9;
-5,44176279351925E-10;
1,27319520860242E-9;
2,77015611347455E-9;
3,31865895712367E-9;
2,84460826495758E-9;
1,81835846993389E-9;
8,89677276878758E-10;
4,27091214384282E-10;
3,29723145619427E-10;
2,2996320176369E-10;
-1,39357244841869E-10;
-7,0968207353461E-10;
-1,1707541125765E-9;
-1,29020615699027E-9;
-1,15001319549341E-9;
-1,08783820600278E-9;
-1,37730273850546E-9;
-1,92204889794355E-9;
-2,24940160545769E-9;
-1,84251365537818E-9;
-5,64228538575642E-10;
1,16568147681642E-9;
2,59933350737852E-9;
3,13678734287297E-9;
2,70075073249077E-9;
1,73948232843957E-9;
8,65645044671956E-10;
4,2929636358321E-10;
3,40851328090217E-10;
2,46995828286712E-10;
-1,03981637750498E-10;
-6,44487273835196E-10;
-1,08498768416289E-9;
-1,20496346993334E-9;
-1,07933103191546E-9;
-1,02594543180765E-9;
-1,30560391108372E-9;
-1,82931080391931E-9;
-2,14897681139304E-9;
-1,77525819030426E-9;
-5,74829810470423E-10;
1,05990912230137E-9;
2,42072162019527E-9;
2,9390681857711E-9;
2,54142892904628E-9;
1,64770006714504E-9;
8,33923498947353E-10;
4,28378111539489E-10;
3,45915056983403E-10;
2,5818204976959E-10;
-7,07055618985633E-11;
-5,81326447679675E-10;
-1,00017157054966E-9;
-1,11608112293215E-9;
-1,00267337121707E-9;
-9,59786834628506E-10;
-1,22795168301877E-9;
-1,72554132577726E-9;
-2,03444316028543E-9;
-1,6923858182172E-9;
-5,74276469350602E-10;
9,53546541056234E-10;
2,2328921870026E-9;
2,73006676819607E-9;
2,37240148673056E-9;
1,5485713108114E-9;
7,94080778095487E-10;
4,18644030609538E-10;
3,44224188170258E-10;
2,65025241690219E-10;
-4,0966990550521E-11;
-5,19018520608457E-10;
-9,11332869963415E-10;
-1,02451935241517E-9;
-9,25037859250931E-10;
-8,89224028179349E-10;
-1,14461842816226E-9;
-1,61443910745677E-9;
-1,90897508104914E-9;
-1,59918455184895E-9;
-5,67199314107808E-10;
8,51543638778721E-10;
2,0463208460334E-9;
2,51721304705791E-9;
2,19541360847652E-9;
1,44117269934356E-9;
7,50118048829981E-10;
4,06410665534447E-10;
3,38875568940222E-10;
2,66034420006597E-10;
-1,73873530304759E-11;
-4,58387345128978E-10;
-8,23485287299903E-10;
-9,34075467057605E-10;
-8,46047238535735E-10;
-8,17503803402763E-10;
-1,05920621744482E-9;
-1,49773263342407E-9;
-1,77631629678131E-9;
-1,49977156559552E-9;
-5,53460510840912E-10;
7,53215692665542E-10;
1,85665747244691E-9;
2,30045399740796E-9;
2,01610101921522E-9;
1,33115800738039E-9;
7,02517496349027E-10;
3,90393077240016E-10;
3,30388180445228E-10;
2,64152330308474E-10;
4,07332825945951E-12;
-4,02399171451225E-10;
-7,40171946181437E-10;
-8,436198151492E-10;
-7,67922406122716E-10;
-7,46059095212212E-10;
-9,70503523486551E-10;
-1,37895039821463E-9;
-1,64132987321502E-9;
-1,39433669490893E-9;
-5,33349979864909E-10;
6,60445756411349E-10;
1,67280488007535E-9;
2,08578034914341E-9;
1,83626304350932E-9;
1,22094963534592E-9;
6,52493609445694E-10;
3,71107268542598E-10;
3,18538053070126E-10;
2,58459764067859E-10;
2,29646447343056E-11;
-3,47610863123283E-10;
-6,58059492665818E-10;
-7,55001202086174E-10;
-6,90430405101858E-10;
-6,75771033621259E-10;
-8,83394105510648E-10;
-1,25839165298287E-9;
-1,5026974346105E-9;
-1,28544016269423E-9;
-5,10127020159687E-10;
5,7093453107129E-10;
1,49331880331636E-9;
1,87684314526895E-9;
1,66043549008108E-9;
1,11094564538563E-9;
6,01940715870193E-10;
3,49089051970702E-10;
3,03094505210192E-10;
2,51362854466231E-10;
3,75183452675998E-11;
-2,98352589502292E-10;
-5,79427130139028E-10;
-6,71111043977156E-10;
-6,16228744752308E-10;
-6,05929669685692E-10;
-7,98189643908446E-10;
-1,14072893401346E-9;
-1,36639737489433E-9;
-1,17710163222193E-9;
-4,83049781508176E-10;
4,88840388346952E-10;
1,32204133623917E-9;
1,67353423264384E-9;
1,48710942345641E-9;
1,00192329383242E-9;
5,50246590458483E-10;
3,26587248351622E-10;
2,86579272019425E-10;
2,39846662190508E-10;
4,97580396726588E-11;
-2,51130567969253E-10;
-5,05876588184733E-10;
-5,91230389646203E-10;
-5,45690917103031E-10;
-5,39445530553017E-10;
-7,14092385712792E-10;
-1,02512788004304E-9;
-1,23246694047188E-9;
-1,06865479482599E-9;
-4,53684354460144E-10;
0,00933343445968161;
0,0226297309852177;
0,0163727387549757;
0,00943309749967599;
0,0121693926831655;
0,00702616782965704;
0,00563481743280129;
0,00458271032289729;
0,000840500319107516;
0,00103239243232666;
-0,00119043970354505;
-0,00199195309449235;
-0,0028071374500944;
-0,00455368179741882;
-0,00488732547656223;
-0,00585590134377451;
-0,00594121818695524;
-0,00618248942553982;
-0,00699357763091973;
-0,00792070397014502;
-0,00934888765191575;
-0,0102428877052176;
-0,0105184980986884;
-0,0101085219790613;
-0,00920766387158861;
-0,00843029635233443;
-0,00783043388925864;
-0,00745747124748137;
-0,00704805306350793;
-0,00641867700145552;
-0,00567545380254764;
-0,00495848764429729;
-0,00445308185746153;
-0,00409076782561967;
-0,00366382628412931;
-0,00302656799548573;
-0,00222823335146536;
-0,00157283005167228;
-0,0013610773204489;
-0,0016652459647947;
-0,00222572514256278;
-0,00258706090986342;
-0,00240676119895829;
-0,00165718370070172;
-0,000624733315627592;
0,000316670098698199;
0,000963663777904375;
0,00137586909949318;
0,00176513194943506;
0,00227846200406337;
0,00287371170208837;
0,0033782087403429;
0,00366494189781791;
0,00378442523694931;
0,0039247472775862;
0,00423344757619284;
0,00465410244137931;
0,00492912862630847;
0,00478539535311964;
0,00416205554936053;
0,00329839433724523;
0,00260120566720783;
0,00238404772035371;
0,00267133534693797;
0,00320917123881019;
0,00366539591320607;
0,00385876849819551;
0,00384594485892084;
0,00381730521000411;
0,00390618894971357;
0,00407638920393987;
0,00417461969920728;
0,00408914784654337;
0,00386593821132894;
0,00367395046792106;
0,00364551893751474;
0,00373088314962784;
0,00370125551125249;
0,00331394826957384;
0,00251555451285707;
0,00151956454349536;
0,000688089391674606;
0,000299922319632647;
0,000376497081314304;
0,000692035533324189;
0,000951432693371819;
0,000993755478092797;
0,000869183681770946;
0,00074630482114662;
0,000742935913567916;
0,000826535842366974;
0,000860914672756256;
0,000746775193485764;
0,000524376497429063;
0,00034264155680537;
0,000317918448257521;
0,000405551978048396;
0,000402859761266498;
9,51190844159355E-5;
-0,00056518124404458;
-0,010723616363272;
-0,0246910032841367;
-0,0187063538113018;
-0,0116223586673692;
-0,0139972382909592;
-0,00853592262770361;
-0,00701192108771627;
-0,00596902268804433;
-0,00223033973971978;
-0,00231727171653074;
8,97660833653987E-5;
0,00103463593254569;
0,00186474270456172;
0,00353260239439936;
0,00382392643067977;
0,00488786297048508;
0,0051665621004565;
0,00552145565287729;
0,00617835229679732;
0,00664177238739118;
0,00746064883104199;
0,0078775963755677;
0,00802158680807231;
0,00784053064304749;
0,00735462485932577;
0,0069510561644495;
0,00655991806780232;
0,00626843189955513;
0,00594145090084652;
0,00548465820027439;
0,00497855072677769;
0,00445879646698009;
0,00403463666199863;
0,00366783347862177;
0,00326335411609705;
0,00276323468507025;
0,00218226948384531;
0,00167054950395844;
0,00136622388949944;
0,00130576040426019;
0,00137147132014764;
0,00134804377739884;
0,00107699117235998;
0,000543584219672877;
-0,000116334195901291;
-0,000724582964564018;
-0,00118434689802036;
-0,00152244922437231;
-0,0018402450084156;
-0,00220794452119168;
-0,00260531818297872;
-0,00294924162639585;
-0,00317776874825152;
-0,00331523410335338;
-0,00345292244161894;
-0,00366309246801213;
-0,00391872229617536;
-0,00409377877842339;
-0,00405387394419796;
-0,0037683835062845;
-0,00335502042630265;
-0,00301538502374359;
-0,00290602801797643;
-0,00304040611764867;
-0,00329290938684393;
-0,00349792660835068;
-0,00356466112687499;
-0,00352164909118308;
-0,00346521630793596;
-0,00346339999506678;
-0,00349852997602486;
-0,00349315084243994;
-0,00339050045412755;
-0,00321419535954114;
-0,00305115671954842;
-0,0029700213766855;
-0,00294586767786801;
-0,00286092489647674;
-0,00258939525380477;
-0,00210309173247678;
-0,00151283613262072;
-0,00100788044505919;
-0,000734995986678057;
-0,000706570561212457;
-0,00080473206882203;
-0,000874202585868288;
-0,000829829881302169;
-0,000698122699097311;
-0,000568858868003226;
-0,000505246814498271;
-0,000490307424742941;
-0,000451225041338721;
-0,000334548786672718;
-0,000161839394332844;
-1,3644379763813E-5;
4,66542948714262E-5;
4,29413800896264E-5;
8,55692381116562E-5;
0,000292250718909826;
0,000689730309010097;
0,00117541309696926;
0,00157388885950792;
0,00174942951077838;
0,00169131766248527;
0,00150982621635308;
0,00134983234406364;
0,00129097292756913;
0,00130920962722579;
0,00132185071890977;
0,00127090379002298;
0,00117271459715075;
0,00109530364454901;
0,00108867135821152;
0,0011333291431223;
0,00115522378417209;
0,0010962306179675;
0,000978922332553852;
0,000905712105154184;
0,000985677265202633;
0,00124377295332808;
0,00158554298897397;
0,00184943195206401;
0,0019106146934443;
0,00175959530973735;
0,00149834155681196;
0,00126056795256168;
0,00111977167476141;
0,00105394601821838;
0,000987128229880688;
0,00086611936194731;
0,000706078737470678;
0,000569606178578581;
0,000502666775964042;
0,000487363028077574;
0,000455721266416883;
0,000354429456340744;
0,000204210280965441;
9,893378532117E-5;
0,000138466813431574;
0,00034551182552422;
0,000633403570486372;
0,000854135515504585;
0,00089343294641528;
0,000742587454767045;
0,000494783609257828;
0,000272121680448642;
0,00014157975538102;
8,28695516338786E-5;
2,64723078151405E-5;
-7,63033234483163E-5;
-0,000211769189090514;
-0,000323008881959381;
-0,000368321696218783;
-0,000364219264052294;
-0,000372793476304798;
-0,000442733006964382;
-0,000555323177690806;
-0,000625342847270365;
-0,000562198734255202;
-0,00034550362146024;
-5,42358829032801E-5;
0,000177000806545164;
0,000244345289758508;
0,000139815395048767;
-5,21468667903559E-5;
-0,000220953230029883;
-0,000306058165551259;
-0,000326011665754122;
-0,000343916793798175;
-0,000403962705807393;
-0,000493856103832194;
-0,000562215335710344;
-0,000571455581904594;
-0,000536624080529947;
-0,000513919671639093;
-0,000547380106150702;
-0,000620159107171289;
-0,000655416154063424;
-0,000571530123935309;
-0,000350239440854218;
-6,28364419561448E-5;
0,000169348800004593;
0,000252779517071708;
0,000180302383101259;
2,79291351103607E-5;
-0,000104873093234834;
-0,000163699916389566;
-0,00016525775398184;
-0,000166248151557905;
-0,000206336702297168;
-0,000274461331239563;
-0,000324502641679386;
-0,000322751190318602;
-0,000282699315910476;
-0,000254692661271608;
-0,000278135958441349;
-0,000337890837642921;
-0,000365144796517759;
-0,00028686959074359;
-8,67513686106645E-5;
0,000171472617569351;
0,00037942008616076;
0,000453622962375545;
0,000387792689013629;
0,000249849488877383;
0,000128576268663342;
7,25119818542261E-5;
6,67932957066504E-5;
6,09497929282588E-5;
1,97225217440347E-5;
-4,69755962415867E-5;
-9,80591448557925E-5;
-0,000103515434273467;
-7,53094854454492E-5;
-5,81339846747836E-5;
-8,692580133435E-5;
-0,000148179501819292;
-0,000180784452906232;
-0,000119949457144287;
4,87826450645229E-5;
0,000268925579039636;
0,000444501336664202;
0,000501669306027196;
0,000434943372174513;
0,000304474170067433;
0,000188803011917829;
0,000130842839619229;
0,000117472247455188;
0,000104147818243181;
5,97871693779674E-5;
-6,82628894237716E-6;
-5,94402801252406E-5;
-7,15962559515151E-5;
-5,38344291497308E-5;
-4,54978051515625E-5;
-7,73086637186017E-5;
-0,000137355315784283;
-0,000171888928599751;
-0,000123979988434662;
1,90364231379604E-5;
0,000207530589808317;
0,000357263490839396;
0,000403486504426449;
0,000341428770172151;
0,000223832574701036;
0,000119498061390656;
6,59781631410876E-5;
5,17705457879917E-5;
3,79085849519431E-5;
-2,77338922712641E-6;
-6,25928647125998E-5;
-0,00010989455299;
-0,000121602951628198;
-0,000106937267881951;
-0,000100217037908776;
-0,000128215549398965;
-0,000180549706343337;
-0,000210430617674224;
-0,000168350649673144;
-4,33440449843869E-5;
0,000121401655303535;
0,000252676686146845;
0,000294263499255651;
0,000242043304280637;
0,000141780356169341;
5,31143987096839E-5;
8,55973324472953E-6;
-1,87150259192516E-6;
-1,19206027297284E-5;
-4,5087718823294E-5;
-9,472809629172E-5;
-0,000133496024867533;
-0,000141483813933856;
-0,000126672638892447;
-0,000118681153254632;
-0,000140589934786647;
-0,000183444974159314;
-0,00020695810460365;
-0,000168546790969814;
-5,8821353486223E-5;
8,50530836303869E-5;
0,00020016268880897;
0,000238248330094922;
0,000195800756138449;
0,000112086114975468;
3,82198835809756E-5;
2,03588723485937E-6;
-5,03339040501435E-6;
-1,18590157049502E-5;
-3,85248699861078E-5;
-7,93428839522362E-5;
-0,000110961863064247;
-0,000116404875844271;
-0,000102492256581963;
-9,44703435966724E-5;
-0,000111986168971015;
-0,000147402960165246;
-0,000166448123040593;
-0,000132942724032923;
-3,89428681419574E-5;
8,39741330929044E-5;
0,000182431227561655;
0,000215536595913911;
0,00018034892797266;
0,000110133864391766;
4,81391385702583E-5;
1,78853068957582E-5;
1,21248579998945E-5;
6,48783576980068E-6;
-1,59532181279661E-5;
-5,03875133866677E-5;
-7,7139777121432E-5;
-8,19265529441991E-5;
-7,04927242013104E-5;
-6,40547896273267E-5;
-7,90972207335067E-5;
-0,00010919251450556;
-0,000125595777555048;
-9,80083660733829E-5;
-1,98083998440747E-5;
8,25637899361771E-5;
0,000164488604946112;
0,000191834585821518;
0,00016217980199818;
0,000103286933916246;
5,11931247184637E-5;
2,54688932232766E-5;
2,00770523107019E-5;
1,47682443425411E-5;
-4,49792810249585E-6;
-3,37148724760022E-5;
-5,65694900168021E-5;
-6,1240341684631E-5;
-5,24898785109518E-5;
-4,78554346028847E-5;
-6,09368913786466E-5;
-8,64133635602244E-5;
-0,000100584551027785;
-7,85143001780038E-5;
-1,47852502695673E-5;
6,88427167220414E-5;
0,000135724191766669;
0,000157878604287849;
0,000133352001345152;
8,48970247697953E-5;
4,19913770030393E-5;
2,06134679051558E-5;
1,58240462251488E-5;
1,11135321622826E-5;
-4,94095851596837E-6;
-2,90662777103034E-5;
-4,8002145815831E-5;
-5,2161557016662E-5;
-4,54181677430352E-5;
-4,19781275386258E-5;
-5,28320049034068E-5;
-7,3664264380881E-5;
-8,53424713617534E-5;
-6,7782620254362E-5;
-1,66566807965369E-5;
5,05057892694706E-5;
0,00010426280452793;
0,000122186232528169;
0,000102741280941528;
6,41566317849179E-5;
2,99913476665634E-5;
1,29840772355921E-5;
9,18439244858995E-6;
5,45066882289635E-6;
-7,28469990868109E-6;
-2,64107850089317E-5;
-4,14156281499799E-5;
-4,47224788592886E-5;
-3,9406015441671E-5;
-3,66791035966649E-5;
-4,51894583093149E-5;
-6,15258287824077E-5;
-7,06568727887128E-5;
-5,68518985764147E-5;
-1,67586241662183E-5;
3,58872558718799E-5;
7,80995458510852E-5;
9,24233112711788E-5;
7,76980960153531E-5;
4,81029131035374E-5;
2,19019357000172E-5;
8,93738187735305E-6;
6,14345372956283E-6;
3,3880166928402E-6;
-6,2932931109325E-6;
-2,08810606949308E-5;
-3,23156054335775E-5;
-3,48124259236006E-5;
-3,07327526749243E-5;
-2,86210879328538E-5;
-3,50379806997474E-5;
-4,737760714544E-5;
-5,42586665035487E-5;
-4,38224371447376E-5;
-1,35825449245353E-5;
2,6099612527164E-5;
5,79752498073494E-5;
6,90067708928939E-5;
5,83660772339248E-5;
3,6638932453555E-5;
1,7393912806959E-5;
7,90647570956765E-6;
5,89572737100903E-6;
3,89570417712781E-6;
-3,19580643479854E-6;
-1,38829015186425E-5;
-2,22747495780897E-5;
-2,41706381344166E-5;
-2,13002808138049E-5;
-1,98504060169594E-5;
-2,45386036353299E-5;
-3,34701042625142E-5;
-3,84834458047261E-5;
-3,11332738279653E-5;
-9,69505715041487E-6;
1,8443714662078E-5;
4,10870759904389E-5;
4,90854487320993E-5;
4,19030545604856E-5;
2,69662604283173E-5;
1,37172949193867E-5;
7,1774808115326E-6;
5,75549543533954E-6;
4,32513215941832E-6;
-5,82850401054956E-7;
-7,93198188987247E-6;
-1,37321144145764E-5;
-1,51694397063936E-5;
-1,3420393458188E-5;
-1,26084985621647E-5;
-1,58398952905657E-5;
-2,18420190811137E-5;
-2,52670463718091E-5;
-2,06502934846068E-5;
-6,93154009447581E-6;
1,10969112512056E-5;
2,56453460540625E-5;
3,09525847468834E-5;
2,67371875424761E-5;
1,76747239192285E-5;
9,61691561886317E-6;
5,62484156827455E-6;
4,70655576071302E-6;
3,76815927040363E-6;
7,57616305954113E-7;
-3,68804040227759E-6;
-7,22766765261022E-6;
-8,249792838932E-6;
-7,45135654564401E-6;
-7,16933833823434E-6;
-9,11572740723397E-6;
-1,25569527799585E-5;
-1,45783026235517E-5;
-1,22906821927209E-5;
-5,20717218773799E-6;
4,12034998943225E-6;
1,17033572670625E-5;
1,4701828494424E-5;
1,30532234030319E-5;
9,06416373342464E-6;
5,49632577301171E-6;
3,72484675181339E-6;
3,27293430385427E-6;
2,7922186676348E-6;
1,44677021099061E-6;
-4,6977607634426E-7;
-2,03072564619201E-6;
-2,655022465144E-6;
-2,62877954649047E-6;
-2,75980766267912E-6;
-3,56790986782825E-6;
-4,78096733340793E-6;
-5,56356651942224E-6;
-5,22580666929521E-6;
-3,76955892095048E-6;
-1,83557162531189E-6;
-1,72546496134422E-7;
8,67445602645722E-7;
1,40812430926549E-6;
1,7412359404279E-6;
2,00218059717193E-6;
2,13427224437422E-6;
2,09801752316333E-6;
2,02538775348716E-6;
2,11076407963256E-6;
2,35639459819008E-6;
2,49146176791122E-6;
2,22552878542372E-6;
1,61999947953478E-6;
1,15879035566204E-6;
1,3280970533574E-6;
2,01029957018111E-6;
2,28786726306598E-6;
9,98487268965465E-7;
-2,27060458852238E-6;
-6,5522451261212E-6;
-9,87198005535188E-6;
-1,04924482016552E-5;
-8,13357292474484E-6;
-4,19283260518222E-6;
-7,3482632550365E-7;
9,85435493505317E-7;
1,29433672543567E-6;
1,56084576017232E-6;
2,83928368319777E-6;
4,88832139271982E-6;
6,43858806046601E-6;
6,47384629641162E-6;
5,34503171037819E-6;
4,61036913425665E-6;
5,5916806565787E-6;
7,84729921948257E-6;
9,00531756880701E-6;
6,36847149022074E-6;
-8,1572891405494E-7;
-1,02492681237957E-5;
-1,77064321059693E-5;
-1,9724245721462E-5;
-1,58935806465352E-5;
-9,0041363400293E-6;
-2,93184756747114E-6;
8,27367656721972E-8;
6,66777868861822E-7;
1,20464269800561E-6;
3,45551005131121E-6;
6,97799432896237E-6;
9,68514349335815E-6;
9,9673467106755E-6;
8,41232874133183E-6;
7,45505717402401E-6;
9,09823148147813E-6;
1,26357784404147E-5;
1,45123513797859E-5;
1,07835088438801E-5;
4,21518283498734E-7;
-1,3195955739304E-5;
-2,40195522773936E-5;
-2,71902594967661E-5;
-2,21947035096587E-5;
-1,29460982299506E-5;
-4,78022010004356E-6;
-7,30795528067698E-7;
7,12600554440504E-8;
8,25488112784363E-7;
3,85588030890111E-6;
8,5602764758814E-6;
1,21974321063035E-5;
1,26837887977188E-5;
1,07962596861458E-5;
9,66846664259279E-6;
1,18445639952549E-5;
1,64077820749944E-5;
1,88632364224796E-5;
1,4278250848095E-5;
1,40783995058058E-6;
-1,55165564956523E-5;
-2,90062972933382E-5;
-3,31024842431031E-5;
-2,72098482665206E-5;
-1,61239999762779E-5;
-6,3252241532069E-6;
-1,46792316509296E-6;
-4,93843149727347E-7;
4,32340904608455E-7;
4,07401315437221E-6;
9,70342974319478E-6;
1,40712040047497E-5;
1,47266678066352E-5;
1,2593357063877E-5;
1,13443636184223E-5;
1,39407331806996E-5;
1,93029913972554E-5;
2,22144866822253E-5;
1,6985415900855E-5;
2,20529088574787E-6;
-1,72420611769095E-5;
-3,2771286355044E-5;
-3,75874732966635E-5;
-3,10334321647297E-5;
-1,85726235641079E-5;
-7,54933331641923E-6;
-2,08522627788013E-6;
-9,79734551501647E-7;
7,89067381391064E-8;
4,18212976230865E-6;
1,05078767294037E-5;
1,54283222461493E-5;
1,62204639827321E-5;
1,39167395133957E-5;
1,25886667201477E-5;
1,55038682933852E-5;
2,14626783034849E-5;
2,47194433958002E-5;
1,90317083646816E-5;
2,86928109162397E-6;
-1,84095686974237E-5;
-3,54254128022561E-5;
-4,07803746291669E-5;
-3,37730423560831E-5;
-2,03455378886356E-5;
-8,45884419817277E-6;
-2,56667295460058E-6;
-1,36737790409275E-6;
-2,13006141080855E-7;
4,21796450517961E-6;
1,10366968630822E-5;
1,63509857509093E-5;
1,7248799879161E-5;
1,48383618136061E-5;
1,34657888418874E-5;
1,66084847400916E-5;
2,29839058941183E-5;
2,64864226678183E-5;
2,05001598981542E-5;
3,41539024628361E-6;
-1,90909468575903E-5;
-3,71101731427416E-5;
-4,2845325790825E-5;
-3,55663489813675E-5;
-2,15288031173179E-5;
-9,09444863222387E-6;
-2,93102152464498E-6;
-1,67172824203201E-6;
-4,54684370007282E-7;
4,18638771626989E-6;
1,13198685831513E-5;
1,68884743327461E-5;
1,78636487798119E-5;
1,5400604793095E-5;
1,40124337634722E-5;
1,73022340159877E-5;
2,39369885951826E-5;
2,75978088897017E-5;
2,14509008731423E-5;
3,84186912821886E-6;
-1,9368610398473E-5;
-3,7971972682181E-5;
-4,39487080089906E-5;
-3,65536796191357E-5;
-2,22131370041309E-5;
-9,50309831059414E-6;
-3,20339708042182E-6;
-1,91307465874133E-6;
-6,61730572403652E-7;
4,08811983165298E-6;
1,13827660599364E-5;
1,70853653951001E-5;
1,81132301959666E-5;
1,56438147879573E-5;
1,42646757732415E-5;
1,7632365195801E-5;
2,43912261834106E-5;
2,81350231972864E-5;
2,19454406493909E-5;
4,15334239031052E-6;
-1,93124128730663E-5;
-3,81397191885489E-5;
-4,4237608689928E-5;
-3,68575645523423E-5;
-2,24746587998231E-5;
-9,71995166745308E-6;
-3,39839332240486E-6;
-2,10125144160648E-6;
-8,39401321671153E-7;
3,93324345008831E-6;
1,12584900053928E-5;
1,69926839800128E-5;
1,80520559836355E-5;
1,56152808792891E-5;
1,4265870964376E-5;
1,76525575984796E-5;
2,44206394681988E-5;
2,818322332057E-5;
2,20504304211059E-5;
4,36375019509586E-6;
-1,89774201680186E-5;
-3,77233088697302E-5;
-4,3839098843757E-5;
-3,6582863921076E-5;
-2,23758596729406E-5;
-9,77013739939901E-6;
-3,52255928001758E-6;
-2,238770329601E-6;
-9,86340315387038E-7;
3,73687375693097E-6;
1,0982988437474E-5;
1,66625322541107E-5;
1,77351073608425E-5;
1,53630330117405E-5;
1,40601129871636E-5;
1,74160525136091E-5;
2,40968224967306E-5;
2,78239100188757E-5;
2,18300997500117E-5;
4,48869632137633E-6;
-1,84116135448851E-5;
-3,68213611001011E-5;
-4,28679801593265E-5;
-3,58245074818342E-5;
-2,1973336771E-5;
-9,67645903066098E-6;
-3,58202624056818E-6;
-2,32834718901247E-6;
-1,10198179644914E-6;
3,51190309790971E-6;
1,05879555314742E-5;
1,61411658353564E-5;
1,72111225586182E-5;
1,49293427843832E-5;
1,36859660757213E-5;
1,6969636399414E-5;
2,34831692092371E-5;
2,71294281062474E-5;
2,13410381097624E-5;
4,54048464196912E-6;
-1,76605913473732E-5;
-3,5525632222483E-5;
-4,14308874008844E-5;
-3,46712727389486E-5;
-2,13212264457668E-5;
-9,46248578576636E-6;
-3,58528417633726E-6;
-2,37538574164729E-6;
-1,18874613884488E-6;
3,26711001732686E-6;
1,00992430763372E-5;
1,54676897171227E-5;
1,65215491040737E-5;
1,43499190963282E-5;
1,31758978737057E-5;
1,63533129853663E-5;
2,26348164517528E-5;
2,61631319318249E-5;
2,06325127977376E-5;
4,52856311263699E-6;
-1,67670379773834E-5;
-3,39203905237655E-5;
-3,96255157614007E-5;
-3,32048035099174E-5;
-2,04699885023843E-5;
-9,15113435959442E-6;
-3,54161129018376E-6;
-2,3862878610123E-6;
-1,25024311422668E-6;
3,0090570492099E-6;
9,53887193473242E-6;
1,46761659734507E-5;
1,57027034771344E-5;
1,36560799280758E-5;
1,2558465203162E-5;
1,56025383423749E-5;
2,16009074012963E-5;
2,49816692619489E-5;
1,97487165524781E-5;
4,46161241808093E-6;
-1,57688253939598E-5;
-3,20806759386651E-5;
-3,7538942349016E-5;
-3,14978911575153E-5;
-1,94646156011159E-5;
-8,76281431925305E-6;
-3,45921373384887E-6;
-2,36664633699286E-6;
-1,28952564825925E-6;
2,74380980967598E-6;
8,92673769074296E-6;
1,37972788892338E-5;
1,47873603876307E-5;
1,28762441821506E-5;
1,18597059908502E-5;
1,47495407769384E-5;
2,04259001252698E-5;
2,36362396870834E-5;
1,87298645729294E-5;
4,34839347546067E-6;
-1,46984739802116E-5;
-3,00720095426495E-5;
-3,5247463411382E-5;
-2,96143080730519E-5;
-1,8344369944183E-5;
-8,31510780998208E-6;
-3,34492258232348E-6;
-2,32099629432847E-6;
-1,30888990858028E-6;
2,47711938441201E-6;
8,2808010593607E-6;
1,28585296585716E-5;
1,38048911011768E-5;
1,20359658958401E-5;
1,11031029710648E-5;
1,38232814500704E-5;
1,91495433062057E-5;
2,21725496712501E-5;
1,76120337856026E-5;
4,19735107459928E-6;
-1,35838377469964E-5;
-2,79513144510644E-5;
-3,28175836470592E-5;
-2,7609707970282E-5;
-1,71435410889796E-5;
-7,82339078783779E-6;
-3,20473831329467E-6;
-2,25335579189114E-6;
-1,3104207227895E-6;
2,21392426504237E-6;
7,61667347086476E-6;
1,18838787877809E-5;
1,27809169093792E-5;
1,11575711500114E-5;
1,03091978207854E-5;
1,28490938848216E-5;
1,78066012102505E-5;
2,06305941814558E-5;
1,64268778294144E-5;
4,01610772257601E-6;
-1,24488954045567E-5;
-2,57679140161453E-5;
-3,03070668346719E-5;
-2,55325585774267E-5;
-1,58921507909461E-5;
-7,30133526711618E-6;
-3,04424239956663E-6;
-2,16760221477131E-6;
-1,29631770098159E-6;
1,9581121698578E-6;
6,94749123462444E-6;
1,08937098317322E-5;
1,17373006690604E-5;
1,02601145185496E-5;
9,49554601774887E-6;
1,18487170973888E-5;
1,64269896658023E-5;
1,90448510671428E-5;
1,52017442891306E-5;
3,81136353231345E-6;
-1,13141301843419E-5;
-2,35641358068119E-5;
-2,77655869610753E-5;
-2,34246518329726E-5;
-1,46162499323393E-5;
-6,7610239544938E-6;
-2,86859087747196E-6;
-2,06742730557733E-6;
-1,2688311595569E-6;
1,71265296973063E-6;
6,28415894761342E-6;
9,90516297678809E-6;
1,06924956447004E-5;
9,35971536896649E-6;
8,67704075319905E-6;
1,08406504816084E-5;
1,50362265669036E-5;
1,74447822248381E-5;
1,39600931528521E-5;
3,58906756935101E-6;
-1,01966932905641E-5;
-2,13757255805614E-5;
-2,52352109828811E-5;
-2,13214733710403E-5;
-1,3338059862621E-5;
-6,21289748897866E-6;
-2,68238772920201E-6;
-1,95619139168997E-6;
-1,23008885693199E-6;
1,47983823893074E-6;
5,63568499984034E-6;
8,93254584519674E-6;
9,66196518860097E-6;
8,46991786702719E-6;
7,8662430456246E-6;
9,84053149586551E-6;
1,36558897631812E-5;
1,585533398397E-5;
1,27218915115922E-5;
3,35455251141638E-6;
-9,11058992759217E-6;
-1,92323055055254E-5;
-2,27509371273791E-5;
-1,92526230906677E-5;
-1,20762037780835E-5;
-5,66580191570878E-6;
-2,48962821734417E-6;
-1,83686530065232E-6;
-1,18203804986558E-6;
1,26141074358503E-6;
5,00941184253739E-6;
7,98762359180666E-6;
8,65847843207769E-6;
7,60195012646849E-6;
7,07360585121609E-6;
8,86139832272026E-6;
1,23039700356306E-5;
1,42973270419412E-5;
1,1503910850222E-5;
3,11256662416377E-6;
-8,06699769269917E-6;
-1,71579405536427E-5;
-2,03413422751273E-5;
-1,72423581460958E-5;
-1,08460211854885E-5;
-5,12713039262781E-6;
-2,29376877039612E-6;
-1,71206622379234E-6;
-1,12645274385259E-6;
1,05860535311775E-6;
4,4111514718352E-6;
7,07984321843702E-6;
7,69233773908467E-6;
6,76490909113247E-6;
6,30764233748165E-6;
7,91389526190446E-6;
1,09951606663678E-5;
1,278779222011E-5;
1,03199633426155E-5;
2,86726461865755E-6;
-7,07459466876038E-6;
-1,51717398096456E-5;
-1,80292538331739E-5;
-1,53101453240804E-5;
-9,65992693423781E-6;
-4,60299310842062E-6;
-2,09779195211432E-6;
-1,58411078005404E-6;
-1,06497789656268E-6;
8,72184109326959E-7;
3,84532303902533E-6;
6,21653969736628E-6;
6,77160321619171E-6;
5,96594625085978E-6;
5,57508454991321E-6;
7,00647672035089E-6;
9,74115211043497E-6;
1,13403177391802E-5;
9,18116484465839E-6;
2,62221907469684E-6;
-6,13986133521652E-6;
-1,32883949251153E-5;
-1,58323686465409E-5;
-1,34711720517808E-5;
-8,52771272535824E-6;
-4,09833778950086E-6;
-1,90424353070328E-6;
-1,45503921777211E-6;
-9,9912913828776E-7;
7,02494011732191E-7;
3,31510691722629E-6;
5,4031727876382E-6;
5,90233765648248E-6;
5,21048219045475E-6;
4,88107821895048E-6;
6,14564412001383E-6;
8,55095858026388E-6;
9,96541226389895E-6;
8,09621199236983E-6;
2,38047051193645E-6;
-5,26734687525909E-6;
-1,15186926355331E-5;
-1,37638290448539E-5;
-1,17368209152804E-5;
-7,45682708091428E-6;
-3,61706696178755E-6;
-1,71526585985887E-6;
-1,32661821354292E-6;
-9,3028604211959E-7;
5,49542672056835E-7;
2,82261913253733E-6;
4,6435620398589E-6;
5,08885538101902E-6;
4,50241699559693E-6;
4,22937523537951E-6;
5,33618031343643E-6;
7,43122165461295E-6;
8,67085979993523E-6;
7,07165598748439E-6;
2,14456679753205E-6;
-4,45990680981566E-6;
-9,86998252750034E-6;
-1,18327676510989E-5;
-1,01151113990833E-5;
-6,45263869760946E-6;
-3,16213437964097E-6;
-1,53261760427397E-6;
-1,20035447817269E-6;
-8,59675978267491E-7;
4,13063557122543E-7;
2,36905527494681E-6;
3,94011111300227E-6;
4,3339487998118E-6;
3,84432498385612E-6;
3,62250772302092E-6;
4,58135851927007E-6;
6,38651868144803E-6;
7,46206083214491E-6;
6,11216342388803E-6;
1,9166187374997E-6;
-3,7189450685474E-6;
-8,34663073327564E-6;
-1,00448203032987E-5;
-8,61112923121003E-6;
-5,51869054650533E-6;
-2,73566150417157E-6;
-1,35771223914826E-6;
-1,07750461916476E-6;
-7,88383751640171E-7;
2,92563853412211E-7;
1,95482642541981E-6;
3,29399607380711E-6;
3,63909793645881E-6;
3,23763943488071E-6;
3,06195707673835E-6;
3,88314473962753E-6;
5,41961194036638E-6;
6,34232710111282E-6;
5,22073959997715E-6;
1,69832481067406E-6;
-3,04461970377713E-6;
-6,95044877819124E-6;
-8,40262623078486E-6;
-7,22743343349673E-6;
-4,656956938003E-6;
-2,3390359220027E-6;
-1,19164543459559E-6;
-9,59107838275573E-7;
-7,17364610965306E-7;
1,87368651240088E-7;
1,5796848527269E-6;
2,70535648372589E-6;
3,00465904818533E-6;
2,68280869485614E-6;
2,54829068010919E-6;
3,24237249563544E-6;
4,53171427924545E-6;
5,31317715559211E-6;
4,39896347122641E-6;
1,49101575403593E-6;
-2,43607004820497E-6;
-5,68108501998219E-6;
-6,90627271748451E-6;
-5,96443704372374E-6;
-3,86805970809872E-6;
-1,97301306348136E-6;
-1,0352413895406E-6;
-8,4599724179659E-7;
-6,47440465880283E-7;
9,66619850440355E-8;
1,24282758640203E-6;
2,17345456477653E-6;
2,43004708138519E-6;
2,17945346645593E-6;
2,08130857386243E-6;
2,65892354524267E-6;
3,72271256322348E-6;
4,37459605345863E-6;
3,64718294000575E-6;
1,29568427272155E-6;
-1,89157883123468E-6;
-4,53638520694295E-6;
-5,55371802220714E-6;
-4,82073875183173E-6;
-3,15148229410267E-6;
-1,63780601457489E-6;
-8,89069102072129E-7;
-7,38820785401224E-7;
-5,79313930661183E-7;
1,95254331892354E-8;
9,43006519023242E-7;
1,69683312611694E-6;
1,91388967579572E-6;
1,7265039746551E-6;
1,66016677668679E-6;
2,1318692358093E-6;
2,9913886011403E-6;
3,5252946006135E-6;
2,96471348449642E-6;
1,11302798068636E-6;
-1,40875031519541E-6;
-3,51271813131163E-6;
-4,34115731292273E-6;
-3,79344709824706E-6;
-2,50576098798585E-6;
-1,33316621790037E-6;
-7,53488482086712E-7;
-6,38062345261396E-7;
-5,13568127076212E-7;
-4,5028092361973E-8;
6,78622786204102E-7;
1,27345983561547E-6;
1,45418606854659E-6;
1,32233297368656E-6;
1,28349892147828E-6;
1,65962983463458E-6;
2,33561418320953E-6;
2,76291950637055E-6;
2,35000909406933E-6;
9,4348113583202E-7;
-9,84657532330644E-7;
-2,60527432847427E-6;
-3,26337762965498E-6;
-2,87846128400677E-6;
-1,928660498831E-6;
-1,05846507524895E-6;
-6,28660073283451E-7;
-5,44052072082242E-7;
-4,50684554887395E-7;
-9,80320656254469E-8;
4,4780444076511E-7;
9,00846775134961E-7;
1,04843583795671E-6;
9,64869483537715E-7;
9,49517408691216E-7;
1,240094135629E-6;
1,75252906182816E-6;
2,08426928419323E-6;
1,80082595062884E-6;
7,87250389967044E-7;
-6,1597200406438E-7;
-1,80832541117806E-6;
-2,31405050426339E-6;
-2,0707249842949E-6;
-1,41732483998356E-6;
-8,12752447211549E-7;
-5,14583574377426E-7;
-4,56990505344603E-7;
-3,91039974814036E-7;
-1,40535781964676E-7;
2,48482213893729E-7;
5,76167956823266E-7;
6,93755757711638E-7;
6,51695275267459E-7;
6,56108957946212E-7;
8,70739146182027E-7;
1,23869834368546E-6;
1,48546876435964E-6;
1,31436072541016E-6;
6,44341247736167E-7;
-2,99080336040775E-7;
-1,11545758008332E-6;
-1,48601845619152E-6;
-1,36445765975612E-6;
-9,68417457696297E-7;
-5,94831276383317E-7;
-4,11121479274257E-7;
-3,76961292300694E-7;
-3,34923321157891E-7;
-1,73585498309662E-7;
7,84548573681944E-8;
2,96345385593339E-7;
3,86985772140589E-7;
3,801505204406E-7;
4,00919686558676E-7;
5,48729529685503E-7;
7,90255218203216E-7;
9,62138863555073E-7;
8,87383188373355E-7;
5,14593151411193E-7;
-3,01844283224011E-8;
-5,19787299796373E-7;
-7,71526160365248E-7;
-7,53351710243598E-7;
-5,78259866167867E-7;
-4,03312155266704E-7;
-3,18018178252806E-7;
-3,03946855684002E-7;
-2,82536857207989E-7;
-1,98212342068215E-7;
-6,45607681419892E-8;
5,81495953568685E-8;
1,24780868509864E-7;
1,47394663171256E-7;
1,81422274546798E-7;
2,71014072013192E-7;
4,03028654654183E-7;
5,09532276999932E-7;
5,16346085663375E-7;
3,97699124155695E-7;
1,94603175316081E-7;
-1,41254746312152E-8;
-1,62431704342187E-7;
-2,3075660108464E-7;
-2,42923797228694E-7;
-2,36653675080728E-7;
-2,34917073710813E-7;
-2,37847056015772E-7;
-2,34016003967381E-7;
-2,1540832296395E-7;
-1,82874113275937E-7;
-1,41737034774607E-7;
-9,63095390741849E-8;
-4,9512018260579E-8;
-5,00964031792469E-9;
3,43991016978925E-8;
7,26426647079736E-8;
1,226706425211E-7;
1,97491096063991E-7;
2,93235901975076E-7;
0,00933381324359688;
0,0226301386809984;
0,0163730868829484;
0,0094333063555616;
0,0121694334526338;
0,0070260741121706;
0,00563465573654704;
0,0045825315662504;
0,000840310667937349;
0,00103216624329085;
-0,00119071828362473;
-0,00199225930860693;
-0,00280741670894193;
-0,0045538948681059;
-0,00488748605865126;
-0,00585606508987071;
-0,0059414226470708;
-0,00618269188484682;
-0,00699364974352505;
-0,00792050286147517;
-0,00934836052596164;
-0,0102421322144132;
-0,0105177264123284;
-0,0101079467762075;
-0,00920738501503409;
-0,00843026811268066;
-0,00783053112462133;
-0,00745759712782749;
-0,00704820204443651;
-0,00641890834126024;
-0,00567580819349354;
-0,00495892717419842;
-0,00445351049535878;
-0,0040911151000179;
-0,00366411527711247;
-0,00302689604244729;
-0,00222866806730527;
-0,00157330338332426;
-0,00136137575069385;
-0,00166512611878312;
-0,00222508223015383;
-0,00258602573037366;
-0,00240564631160005;
-0,00165631003811565;
-0,00062425885026539;
0,000316800498742692;
0,000963622454070384;
0,00137578987291102;
0,00176501974426849;
0,00227823024893828;
0,00287329945277885;
0,00337766433214124;
0,00366439464027909;
0,00378397073223331;
0,00392435493097636;
0,00423298654891194;
0,00465348089061668;
0,00492843480709072;
0,00478491102416408;
0,00416210480379944;
0,0032991241275855;
0,00260245948481251;
0,00238543357177226;
0,00267244631258057;
0,003209802912062;
0,00366561040345894;
0,00385877509669085;
0,00384590638473263;
0,00381722597335309;
0,00390596073513483;
0,0040759349513628;
0,0041739957277288;
0,00408850943306274;
0,00386540061333143;
0,00367347724572057;
0,00364495308162373;
0,00373011383061069;
0,00370038659623391;
0,00331331459567224;
0,00251554315620806;
0,0015203557777619;
0,00068950759361831;
0,00030151474803782;
0,000377790713054494;
0,000692789974642705;
0,000951714908509881;
0,000993802595888778;
0,000869180405793281;
0,000746254865628592;
0,000742714479280417;
0,000826053450027965;
0,000860233469686772;
0,000746069927293124;
0,000523777213412759;
0,000342107451930941;
0,00031727285998455;
0,000404669751896135;
0,000401856307989365;
9,43688585937237E-5;
-0,00056524394422412;
-0,0107227858345202;
-0,0246894684737204;
-0,0187046116895474;
-0,0116209307593558;
-0,0139963917071701;
-0,00853558739275938;
-0,00701184026172156;
-0,0059689959514488;
-0,00223036395113755;
-0,00231748378082147;
8,92675438810348E-5;
0,00103391700613342;
0,00186399189116712;
0,00353196023748216;
0,00382334906666924;
0,00488715982472793;
0,00516559780422333;
0,0055203535892601;
0,00617751469460558;
0,00664166688478573;
0,00746149957974721;
0,00787920613651228;
0,00802342884589871;
0,00784205036805207;
0,00735553659474791;
0,00695143131491929;
0,00656002638272853;
0,00626848384314371;
0,00594144907070925;
0,00548445751096952;
0,00497804628968272;
0,00445805667710571;
0,00403385878655665;
0,00366716481602056;
0,00326274887683075;
0,00276249339032324;
0,00218125014170304;
0,00166938036537035;
0,00136532463958259;
0,00130561991253756;
0,0013723260676424;
0,00134969255798773;
0,00107889001968684;
0,000545158881123498;
-0,000115380867165112;
-0,000724179473726064;
-0,00118421672889591;
-0,00152237649339703;
-0,00184022762782979;
-0,00220813235144458;
-0,00260581987768662;
-0,00294998788259116;
-0,00317855783033363;
-0,00331591518950807;
-0,00345354226894693;
-0,00366385509777838;
-0,00391977324195334;
-0,0040949875890209;
-0,00405481236830164;
-0,00376855189292826;
-0,00335417527574186;
-0,00301372783847852;
-0,00290410925747878;
-0,00303880819535014;
-0,00329193480911209;
-0,00349750490726598;
-0,00356451417027892;
-0,00352155960627524;
-0,00346518268142781;
-0,00346357393997952;
-0,0034990217601982;
-0,00349389143861453;
-0,0033912873201516;
-0,00321487690405279;
-0,00305177979590535;
-0,00297079094743346;
-0,0029469301257705;
-0,00286214983064033;
-0,00259035342728742;
-0,00210328162315457;
-0,00151201177720463;
-0,00100624057583077;
-0,000733088480132142;
-0,000704976242368838;
-0,000803753602265297;
-0,00087377144517454;
-0,000829670653059296;
-0,000698020113853571;
-0,000568811747378457;
-0,000505406250101573;
-0,000490783471111886;
-0,000451949928860812;
-0,000335322243933762;
-0,000162511378519511;
-1,42611636714219E-5;
4,58899474824144E-5;
4,188445191821E-5;
8,43481618519548E-5;
0,000291289386948442;
0,000689524625033393;
0,00117620762727111;
0,00157549016098047;
0,00175129984798934;
0,00169288593929107;
0,00151079396451338;
0,00135026541737206;
0,00129114043904975;
0,00130932203196239;
0,00132190880294386;
0,00127075914647649;
0,00117225891214057;
0,00109460262956458;
0,00108792047555136;
0,00113267496578532;
0,0011546211918047;
0,00109548161149423;
0,000977885113060155;
0,000904511593803472;
0,000984726756300459;
0,00124355653357917;
0,00158630061081874;
0,00185097748485044;
0,0019124267170471;
0,00176111912889201;
0,00149928649130691;
0,00126099661524461;
0,00111994397662818;
0,00105406532041183;
0,000987194964089893;
0,0008659895011487;
0,000705646965432536;
0,000568935505745559;
0,000501945797898398;
0,000486733294387203;
0,00045513927906041;
0,000353704053344652;
0,000203204383948668;
9,77675584575121E-5;
0,000137538716064449;
0,000345289105634222;
0,000634118930335746;
0,000855611714981728;
0,000895169810170659;
0,000744052037374267;
0,000495695916695745;
0,000272540661886551;
0,000141753823488751;
8,29931734398013E-5;
2,65456021964855E-5;
-7,64186563159518E-5;
-0,000212174451774392;
-0,000323644256630634;
-0,000369007077133116;
-0,000364819353790763;
-0,000373349791181164;
-0,000443428225315997;
-0,000556288457435408;
-0,000626463766020734;
-0,000563094999860675;
-0,000345728788060285;
0,00927986743310793;
0,022808127175187;
0,0166187312655844;
0,00957430539626935;
0,0121181168376544;
0,00680561910261298;
0,00532893221436692;
0,00425682407860369;
0,000496661272170537;
0,000628328411325563;
-0,0110181066331688;
-0,0251844942791184;
-0,0197519753401035;
-0,0145239681076385;
-0,0175711632212434;
-0,0134301080919914;
-0,0121971109660039;
-0,0114216815374073;
-0,00840646384716963;
-0,00930355966895693;
-0,00822066425744912;
-0,0080802778261286;
-0,00745703200395028;
-0,00537322499890183;
-0,00429158493110302;
-0,00267888158436722;
-0,00205274656026096;
-0,00144011511229247;
-0,000220643773977127;
0,00129560198882077;
0,00339862536276377;
0,00495934369892045;
0,00574206403595663;
0,00573452623675312;
0,00528865174178612;
0,00512497248580693;
0,0052634465200704;
0,00551849098398329;
0,00539929528331343;
0,0046664594714603;
0,00362177157453741;
0,00275206293889669;
0,00250138862196371;
0,00282260436467144;
0,00328971631345512;
0,00347218097257308;
0,0032645734959204;
0,00301561552184792;
0,00318724053185373;
0,00396335497475581;
0,00505214373815979;
0,00586669937352925;
0,00596763104799573;
0,0053658087969611;
0,00449088753173226;
0,00382927325766957;
0,00354145277997576;
0,00337153443712357;
0,00289955215905083;
0,00193216194972367;
0,000694128297111902;
-0,000331380295647681;
-0,000777888029585636;
-0,000677008081814014;
-0,000410381381979411;
-0,000378903892757513;
-0,000664332867688615;
-0,00096559122740585;
-0,000863860478366477;
-0,000196143007783546;
0,000770880627925932;
0,00151350578948671;
0,00163299256238962;
0,00114031669312382;
0,000418857553557192;
-9,77209843024695E-5;
-0,000265987917546838;
-0,000317451225987865;
-0,000628046812258499;
-0,00137180440107397;
-0,00234882376158096;
-0,00312824100995181;
-0,00338451213588821;
-0,00314696498978264;
-0,00275741691250036;
-0,00257426660577891;
-0,00267099858774371;
-0,00278018492801898;
-0,0025296537442967;
-0,00177544450947932;
-0,000755880476378853;
6,25057764188289E-5;
0,000324784013833286;
4,05295601785817E-5;
-0,000449999268995207;
-0,000762221362881042;
-0,00076944022420935;
-0,000677558323947601;
-0,000820192725993825;
-0,00135165822496854;
-0,00209489484576662;
-0,00266858067032895;
-0,00278501120625365;
-0,00247063970081753;
-0,00202809790866267;
-0,00177426174299853;
-0,00177395348903356;
-0,00179093240862064;
-0,0014967998777366;
-0,000764828205871881;
0,000194550062408733;
0,000970077999927181;
0,00124931738886795;
0,00104113712068214;
0,000645413974150818;
0,000400679796879447;
0,000418377098961002;
0,00051758749703771;
0,000405466320687624;
-5,30596677900466E-5;
-0,000702137990894475;
-0,00120697527870224;
-0,00131526118691357;
-0,00105024716970944;
-0,000677000696523093;
-0,000472709722167878;
-0,000493691178672951;
-0,000532934423440184;
-0,000303160006154379;
0,000306354233189706;
0,00111178963387309;
0,0017542979320284;
0,00196168551467097;
0,00174223041570987;
0,00135777969231062;
0,00110351697068949;
0,00107658287102745;
0,00111964619561023;
0,000978258858457296;
0,000535415704259117;
-7,30472620405712E-5;
-0,000556148493195342;
-0,00069488616904713;
-0,000509540133946093;
-0,000229962508298651;
-9,61923354684149E-5;
-0,000156710428795446;
-0,000232076174028814;
-7,36989155842258E-5;
0,000414024434037739;
0,00107208213371361;
0,00159054321614173;
0,00173468273170633;
0,0015119999905059;
0,00114855433429864;
0,000898808808358639;
0,000846362484094171;
0,000855736609586208;
0,000708131833033573;
0,000303183411164716;
-0,000242168813062854;
-0,000677997817178696;
-0,000816517755399817;
-0,000675390876380712;
-0,00045182963515906;
-0,000351468345433356;
-0,000415689761395474;
-0,000490884869237201;
-0,000364594855145683;
4,46009631717629E-5;
0,000600616753924688;
0,00103881461445727;
0,00115909333125912;
0,000968060662960159;
0,000658425461032222;
0,000446769635933401;
0,000404042227857435;
0,000414917305447493;
0,000293506888218563;
-4,52619308016388E-5;
-0,000502040779490161;
-0,000864957428178426;
-0,000975137487684296;
-0,000847854138239353;
-0,00065019728619849;
-0,000556074839871198;
-0,000600371768430271;
-0,000653360065139269;
-0,000535927982706932;
-0,000179726180665584;
0,000300302402849202;
0,00068124938446742;
0,000794882162044145;
0,000646962314643557;
0,000399495205333802;
0,00023422722206033;
0,000210504194952058;
0,000231554301686875;
0,000141747638061407;
-0,000129934856786326;
-0,000500281387505788;
-0,000792309992354255;
-0,00087361293643054;
-0,000757207127035483;
-0,000582512807249315;
-0,000494325339155959;
-0,000521545097568323;
-0,000556268855884759;
-0,000449846661656035;
-0,00014581523127925;
0,000260288952016105;
0,000583759343744374;
0,000685520581886545;
0,000570589882973662;
0,000372974850179657;
0,000242679145539811;
0,00022852336479722;
0,000250712804206832;
0,000181243285181464;
-3,80671144158637E-5;
-0,000338673587077378;
-0,000575317948560069;
-0,000639622285663123;
-0,000542487697222895;
-0,000398117690856926;
-0,000324805807494956;
-0,00034598824278202;
-0,000373557581101417;
-0,000286481957512752;
-3,90356817375301E-5;
0,000290899197962781;
0,000553293768750349;
0,00063551913658886;
0,000541923192290796;
0,000381162043526663;
0,000274518046769565;
0,00026131219692085;
0,00027713127629733;
0,000218963609357793;
4,02298673575275E-5;
-0,000203781234959865;
-0,000396458999844676;
-0,000451102729983117;
-0,000376681329646705;
-0,000264634520361321;
-0,000209356572898856;
-0,000229367384299418;
-0,00025440401934403;
-0,000188306860960256;
4,99460593118741E-6;
0,000263517527865827;
0,000468427565375635;
0,00053086118548362;
0,000454541237951827;
0,000325326204468721;
0,000238693653903212;
0,000225433192098925;
0,000234928505688919;
0,000186570212657381;
4,41576364794457E-5;
-0,000148925499456971;
-0,000301747842098541;
-0,00034702403854708;
-0,000291992399612742;
-0,000207729517669092;
-0,000167270523712543;
-0,000184762873703366;
-0,000205909756039675;
-0,000156778224761617;
-9,91910418578592E-6;
0,000186874343590231;
0,000342587418469839;
0,000389527980409684;
0,000330835531349588;
0,000232034695150179;
0,000165609306060707;
0,000154748422652635;
0,000161104807126997;
0,00012397890865567;
1,63752583135164E-5;
-0,000128922279838102;
-0,000243803587396504;
-0,000278222292084255;
-0,000237877190733086;
-0,000175781965517153;
-0,000146042634906892;
-0,000158946538231192;
-0,000174353240481157;
-0,00013801405837331;
-3,01046470093635E-5;
0,000114142037258196;
0,000228311592794894;
0,00026341491460071;
0,000222061247335661;
0,000151807412478692;
0,000104838223616677;
9,76400672839459E-5;
0,000102687358358907;
7,68254720194293E-5;
1,1585898805047E-6;
-0,000100873733859056;
-0,000181250938503981;
-0,000205086028430769;
-0,000176712339042812;
-0,000133259027923451;
-0,000112202221892838;
-0,000120445072381019;
-0,000130275498965975;
-0,000104708515688694;
-3,05931019371505E-5;
6,78595140974736E-5;
0,000145791762110153;
0,000170588302619599;
0,000144387576246386;
9,90257945498859E-5;
6,89439291369398E-5;
6,4779418969268E-5;
6,84650961118437E-5;
5,21627876324092E-5;
4,03854196523413E-6;
-6,06218594885824E-5;
-0,000111306554215459;
-0,000126324996620606;
-0,000108808113169959;
-8,20515031158856E-5;
-6,9064261615414E-5;
-7,38104929293435E-5;
-7,93784710075839E-5;
-6,37698979998216E-5;
-1,96134996076668E-5;
3,84542640201141E-5;
8,42737049888263E-5;
9,94172488350761E-5;
8,56096224377117E-5;
6,10749530751073E-5;
4,49053755577902E-5;
4,26876433901889E-5;
4,45339055101578E-5;
3,58343618254809E-5;
1,08449750509179E-5;
-2,21890421039642E-5;
-4,78526158782146E-5;
-5,58197932861017E-5;
-4,81753353021094E-5;
-3,63005262949417E-5;
-3,07593501041426E-5;
-3,29941093577294E-5;
-3,53767137033525E-5;
-2,87752749642415E-5;
-1,076939319661E-5;
1,22268047124855E-5;
3,00854002213087E-5;
3,65292669410782E-5;
3,29210302331545E-5;
2,58323789385744E-5;
2,12309714485774E-5;
2,03915335166207E-5;
2,04139671158396E-5;
1,79752464287836E-5;
1,25173498825008E-5;
6,27642902504113E-6;
1,80584590679439E-6;
-2,37589261945463E-7;
-1,04074053948846E-6;
-1,85165490821748E-6;
-2,66367904062087E-6;
-2,78485675431401E-6;
-2,46856201684565E-6;
-3,49011504590665E-6;
-7,61628685526058E-6;
-1,42915116685223E-5;
-2,00769963023732E-5;
-2,09817442767939E-5;
-1,59578089225746E-5;
-8,27799226268196E-6;
-3,04828018144714E-6;
-2,6262481847355E-6;
-4,02362440775838E-6;
-1,06592584429545E-6;
1,00426087509389E-5;
2,64789636486266E-5;
3,99913129900771E-5;
4,31259879676874E-5;
3,54565604118061E-5;
2,42304600155986E-5;
1,8302837854347E-5;
2,0144604387251E-5;
2,29086961739925E-5;
1,57104602254673E-5;
-6,70407461641034E-6;
-3,79588470638744E-5;
-6,33077839861499E-5;
-7,02156364976013E-5;
-5,79044839708802E-5;
-3,78353689396569E-5;
-2,4310553212406E-5;
-2,26978690814995E-5;
-2,51256119629655E-5;
-1,75563947424349E-5;
7,40026313798689E-6;
4,27310903406717E-5;
7,12575158030741E-5;
7,88381250484551E-5;
6,56815565588317E-5;
4,60375850210695E-5;
3,60409419678957E-5;
3,96189969982924E-5;
4,45050481825836E-5;
3,2342582627571E-5;
-4,97241655843299E-6;
-5,62888362703501E-5;
-9,76075854075098E-5;
-0,000109415202148147;
-9,11619857818917E-5;
-6,09917815018693E-5;
-4,06979446229228E-5;
-3,80936796211856E-5;
-4,13350967174798E-5;
-3,00034444903185E-5;
6,19950698577733E-6;
5,68586410411615E-5;
9,75706859928983E-5;
0,00010879475903645;
9,1261010311464E-5;
6,48708638558955E-5;
5,16203822696593E-5;
5,66026579689757E-5;
6,31928410657237E-5;
4,70417577606309E-5;
-2,2296383918045E-6;
-6,96390095300242E-5;
-0,000123787484479634;
-0,000139595229580538;
-0,000116702509549746;
-7,85791093242797E-5;
-5,29735979721186E-5;
-4,96361141796632E-5;
-5,35707124303313E-5;
-3,93097759209571E-5;
5,73544058298452E-6;
6,84570423693479E-5;
0,000118756352809296;
0,000132849688210473;
0,000111886298935251;
8,02069222474805E-5;
6,43968576250001E-5;
7,04544954331841E-5;
7,83483199213274E-5;
5,9061422238736E-5;
4,54084792122589E-7;
-7,95055811539327E-5;
-0,000143677476680876;
-0,000162678152644981;
-0,000136303541360646;
-9,21368685722976E-5;
-6,25102751084905E-5;
-5,86572653824446E-5;
-6,31620578250928E-5;
-4,66968990607502E-5;
5,06726287899818E-6;
7,69619123118729E-5;
0,000134555362249577;
0,000150850785951005;
0,000127324842649021;
9,167851169484E-5;
7,39548685132354E-5;
8,08261983380818E-5;
8,96998628438608E-5;
6,80678065206484E-5;
2,48579625775836E-6;
-8,68431432807282E-5;
-0,000158509296799205;
-0,000179945348853811;
-0,000151072474556048;
-0,000102513250834946;
-6,99690194988639E-5;
-6,57554968362269E-5;
-7,06850389643059E-5;
-5,26208820661617E-5;
4,02023402953092E-6;
8,25678671346106E-5;
0,000145460391832223;
0,000163396429365501;
0,000138098827530444;
9,96770349118331E-5;
8,06346478352034E-5;
8,81141914727137E-5;
9,77066496984378E-5;
7,44483808467919E-5;
3,99165145164261E-6;
-9,18862636457701E-5;
-0,000168799740830114;
-0,000191981354652896;
-0,000161450689147939;
-0,000109926869952468;
-7,54151760323345E-5;
-7,09619035038603E-5;
-7,61754688566579E-5;
-5,7030726738165E-5;
2,88447849252941E-6;
8,58870034281718E-5;
0,000152337718403117;
0,000171424934228907;
0,000145046552707873;
0,000104889178314566;
8,50465374669474E-5;
9,2953991321547E-5;
0,000103035838520615;
7,87754812147389E-5;
5,27083987598208E-6;
-9,47020506271633E-5;
-0,000174907666863392;
-0,000199234122693839;
-0,000167775952171283;
-0,000114529547630706;
-7,88790095299176E-5;
-7,42960670579651E-5;
-7,96778717377132E-5;
-5,99089254645492E-5;
1,88357278138484E-6;
8,74277605069407E-5;
0,000155918140697002;
0,00017571980217268;
0,000148844066682508;
0,00010783626921084;
8,76286633535129E-5;
9,57965741096085E-5;
0,000106158330795476;
8,14226794622018E-5;
6,4339150931546E-6;
-9,55290513549787E-5;
-0,000177350151663729;
-0,000202309114006943;
-0,000170555185254981;
-0,00011665800764392;
-8,05861343896615E-5;
-7,59749297651696E-5;
-8,1432836215507E-5;
-6,14379207447092E-5;
1,02805777376654E-6;
8,74677339169334E-5;
0,000156688876968072;
0,00017682077927817;
0,000149935379009898;
0,00010882317388392;
8,86136160699541E-5;
9,68918209301742E-5;
0,000107348241959767;
8,25799012638289E-5;
7,43325883758331E-6;
-9,47319762612597E-5;
-0,000176743445713769;
-0,000201897871350376;
-0,000170381992363525;
-0,000116741425683769;
-8,0855766488344E-5;
-7,63023070521203E-5;
-8,17585744775186E-5;
-6,18747163841412E-5;
2,46658204605386E-7;
8,61897370843821E-5;
0,00015503382939619;
0,000175167903380953;
0,000148679852505795;
0,000108088402447302;
8,81804398924701E-5;
9,64415656234199E-5;
0,00010683634404786;
8,24068448538396E-5;
8,21616240715262E-6;
-9,26494156218692E-5;
-0,000173652100503085;
-0,000198629296543082;
-0,000167790821494703;
-0,000115158967442412;
-7,99619660001589E-5;
-7,55341188406651E-5;
-8,09204319736828E-5;
-6,14250587066819E-5;
-4,9294500335608E-7;
8,3797257459157E-5;
0,000151343544096602;
0,000171205899556621;
0,000145450980328084;
0,000105897176686135;
8,6541873000175E-5;
9,46809134759788E-5;
0,000104885441167731;
8,11024156241684E-5;
8,7883638491243E-6;
-8,95361329602378E-5;
-0,000168537064576062;
-0,000193023482895521;
-0,000163216407774653;
-0,000112204752616764;
-7,81040238874615E-5;
-7,38540579518567E-5;
-7,91117029639034E-5;
-6,02292086061347E-5;
-1,17461036882949E-6;
8,05194488575705E-5;
0,000146015869114117;
0,000165380628511029;
0,000140628739162522;
0,000102529874946016;
8,39291683613785E-5;
9,1859723019897E-5;
0,000101768749583231;
7,88801638723672E-5;
9,18661107049175E-6;
-8,55932305609148E-5;
-0,000161788255453767;
-0,000185526274951101;
-0,000157029909710342;
-0,000108125255705393;
-7,54449841276156E-5;
-7,14131855978216E-5;
-7,6494138799684E-5;
-5,84030367480519E-5;
-1,7750475545406E-6;
7,65698931179894E-5;
0,000139414882575019;
0,000158098083797701;
0,000134558575662385;
9,82410900648873E-5;
8,05514725924589E-5;
8,82026327743496E-5;
9,77307137871147E-5;
7,5929780873524E-5;
9,44067186409409E-6;
-8,10056838514692E-5;
-0,000153761420186184;
-0,000176544983788031;
-0,000149573026161005;
-0,000103151619189763;
-7,21422359432521E-5;
-6,8358979569251E-5;
-7,32254846968709E-5;
-5,60638547626313E-5;
-2,2876022707651E-6;
7,21250599945061E-5;
0,000131851450877688;
0,000149706675592889;
0,000127535035988232;
9,32444851493161E-5;
7,6582094473043E-5;
8,38969415052524E-5;
9,2976491327217E-5;
7,24078864502078E-5;
9,56495815833421E-6;
-7,59501346858446E-5;
-0,000144785189846831;
-0,000166454237387229;
-0,000141162180208318;
-9,75020437114825E-5;
-6,83483340103047E-5;
-6,4834929303755E-5;
-6,94580171298661E-5;
-5,33277062470529E-5;
-2,71796742471165E-6;
6,73303221731655E-5;
0,000123590733839405;
0,000140505656789085;
0,000119810597816441;
8,77218396469748E-5;
7,21678938668627E-5;
7,91025874557243E-5;
8,76824948579879E-5;
6,84487036601503E-5;
9,56876163973169E-6;
-7,058541463975E-5;
-0,000135152172824769;
-0,000155587076858876;
-0,000132079060509286;
-9,13715835894528E-5;
-6,42003111296458E-5;
-6,09697769992026E-5;
-6,53278701720094E-5;
-5,02985437215393E-5;
-3,07277700436218E-6;
6,23121631036001E-5;
0,000114864940985681;
0,000130757832523473;
0,000111607740550824;
8,18342875601768E-5;
6,74399407885967E-5;
7,39625392018949E-5;
8,2006516599461E-5;
6,41734858276475E-5;
9,46438681838782E-6;
-6,50460172148914E-5;
-0,000125113795001478;
-0,000144230465974373;
-0,000122566109809085;
-8,49273607993655E-5;
-5,9814849653848E-5;
-5,68730482096687E-5;
-6,09510503482484E-5;
-4,70644104310624E-5;
-3,35543590484698E-6;
5,71829844477179E-5;
0,000105878546160966;
0,000120694550312937;
0,000103123129899348;
7,57255403686652E-5;
6,25160483352956E-5;
6,86050264434761E-5;
7,60897066414444E-5;
5,96918051667661E-5;
9,2671187274843E-6;
-5,94437766002297E-5;
-0,000114883303590643;
-0,000132628837914699;
-0,000112829854532934;
-7,83113748795078E-5;
-5,52908103760508E-5;
-5,26377058423387E-5;
-5,64263362470199E-5;
-4,37002420934343E-5;
-3,56824899833026E-6;
5,2039983147174E-5;
9,68079258523675E-5;
0,000110515436621447;
9,45268397787981E-5;
6,95204073530201E-5;
5,74989131417778E-5;
6,31417097574854E-5;
7,00548064408E-5;
5,50993934659371E-5;
8,99200225949506E-6;
-5,38724721594983E-5;
-0,000104641443919368;
-0,00012099003326693;
-0,000103046306218637;
-7,16450701539005E-5;
-5,07132042900337E-5;
-4,8343970691049E-5;
-5,18390901684477E-5;
-4,02712938291809E-5;
-3,71487846331619E-6;
4,69639602376228E-5;
8,78011984166658E-5;
0,000100388575417322;
8,59621898146209E-5;
6,33241333447172E-5;
5,24752459501714E-5;
5,76669990518624E-5;
6,40057056622215E-5;
5,04774392639536E-5;
8,65219696101204E-6;
-4,84107828249704E-5;
-9,45404174487465E-5;
-0,000109489438676176;
-9,33644739919888E-5;
-6,50319113195097E-5;
-4,61551123876224E-5;
-4,40610296887063E-5;
-4,72629000164037E-5;
-3,68343841292417E-5;
-3,80059730581912E-6;
4,20203970644783E-5;
7,89803424514416E-5;
9,04529501015378E-5;
7,75478586512763E-5;
5,7223956022615E-5;
4,75170848841384E-5;
5,22595439125337E-5;
5,80291231807474E-5;
4,58939625992808E-5;
8,25932354701762E-6;
-4,31233229260634E-5;
-8,4705982057508E-5;
-9,82723389972712E-5;
-8,39081642644129E-5;
-5,85583360318296E-5;
-4,16780550388072E-5;
-3,98472840811149E-5;
-4,2759857683515E-5;
-3,34378372703252E-5;
-3,83131042738907E-6;
3,72616573799172E-5;
7,044435512553E-5;
8,08218474583828E-5;
6,93808588527655E-5;
5,12914693772168E-5;
4,26838424046835E-5;
4,69843613237438E-5;
5,21968445792525E-5;
4,1405658228537E-5;
7,82423190983859E-6;
-3,80613172429257E-5;
-7,5239280066777E-5;
-8,74560698926412E-5;
-7,47776614860604E-5;
-5,22946550376772E-5;
-3,73323740206275E-5;
-3,57506760901675E-5;
-3,83809686443804E-5;
-3,0121630029043E-5;
-3,81286199251997E-6;
3,27288444951303E-5;
6,22720196346677E-5;
7,15858401843657E-5;
6,15390715362527E-5;
4,55845139581491E-5;
3,80238502562143E-5;
4,18944290644113E-5;
4,65673990482821E-5;
3,70591872978173E-5;
7,35720677801985E-6;
-3,32638416943997E-5;
-6,62192010761755E-5;
-7,71327079333428E-5;
-6,605196480067E-5;
-4,62965417838333E-5;
-3,31582322991902E-5;
-3,1809622066402E-5;
-3,41671638181031E-5;
-2,69181334088585E-5;
-3,75093370735868E-6;
2,84530494883052E-5;
5,4524043859218E-5;
6,28151337902122E-5;
5,40831700195427E-5;
4,01484938635786E-5;
3,35753601679341E-5;
3,70317634710937E-5;
4,11872494764827E-5;
3,28919938821362E-5;
6,8677495913937E-6;
-2,87593898343355E-5;
-5,77050230618788E-5;
-6,73720186887757E-5;
-5,7791277427176E-5;
-4,06067860698897E-5;
-2,91868652419114E-5;
-2,8054177301523E-5;
-3,01505225150764E-5;
-2,38530632131649E-5;
-3,65117163089671E-6;
2,44563437272359E-5;
4,72449348619819E-5;
5,45616789210897E-5;
4,70583562677127E-5;
3,50175609848145E-5;
2,93674531064625E-5;
3,24284197153226E-5;
3,60918983241972E-5;
2,89330816409461E-5;
6,36440507591677E-6;
-2,4567351336915E-5;
-4,97389137275026E-5;
-5,82242343458365E-5;
-5,00393409460248E-5;
-3,52568883065667E-5;
-2,54416881207892E-5;
-2,45070789264308E-5;
-2,63553497394838E-5;
-2,09462777713977E-5;
-3,51919286503637E-6;
2,07528586043022E-5;
4,04649264728172E-5;
4,68613241759407E-5;
4,0496159886568E-5;
3,0215883931202E-5;
2,54210404099023E-5;
2,81075826338638E-5;
3,13071045024904E-5;
2,52039185639252E-5;
5,85473767150155E-6;
-2,06992554711347E-5;
-4,23481264568166E-5;
-4,97225106812545E-5;
-4,28254744787203E-5;
-3,02684446003498E-5;
-2,19392280586361E-5;
-2,11845781193851E-5;
-2,27990583163722E-5;
-1,82124081365356E-5;
-3,36046384185394E-6;
1,73499099843393E-5;
3,42019039156833E-5;
3,97359592676267E-5;
3,441624222469E-5;
2,57589622522119E-5;
2,1749933718052E-5;
2,40847169654845E-5;
2,68501352189978E-5;
2,17193894594864E-5;
5,34542352617502E-6;
-1,7159845426016E-5;
-3,55470030089278E-5;
-4,18851946110413E-5;
-3,61664591595169E-5;
-2,56543864350172E-5;
-1,86899343252422E-5;
-1,80971974678437E-5;
-1,9492973833789E-5;
-1,56614370261314E-5;
-3,18018569781878E-6;
1,4249075209721E-5;
2,84632166163943E-5;
3,31955228748883E-5;
2,88280977005881E-5;
2,16548533313117E-5;
1,83618312520472E-5;
2,03686232960632E-5;
2,27309151070214E-5;
1,84886698069633E-5;
4,84231025616675E-6;
-1,39481006627587E-5;
-2,93388428406703E-5;
-3,47179392465058E-5;
-3,00683014139081E-5;
-2,14201709129356E-5;
-1,56989904972351E-5;
-1,52504843533047E-5;
-1,64431293543637E-5;
-1,32992670798178E-5;
-2,98322425054402E-6;
1,14471203197948E-5;
2,32473074949241E-5;
2,72398189357699E-5;
2,37325654457499E-5;
1,79052623585086E-5;
1,52591970833377E-5;
1,69623901201008E-5;
1,89530668940777E-5;
1,55159985773548E-5;
4,35044240581172E-6;
-1,1058208739039E-5;
-2,37176688789664E-5;
-2,82157001564537E-5;
-2,45279034356059E-5;
-1,75649221534441E-5;
-1,29670950483725E-5;
-1,26457291966657E-5;
-1,36510347837913E-5;
-1,11283041075171E-5;
-2,77409260332873E-6;
8,93684705916821E-6;
1,85451912599195E-5;
2,18601624815325E-5;
1,91232257083127E-5;
1,45065413598258E-5;
1,24400538877415E-5;
1,38642489469841E-5;
1,55148535282808E-5;
1,28013953114581E-5;
3,87409437351569E-6;
-8,48046620059382E-6;
-1,866986090112E-5;
-2,23645726189221E-5;
-1,9534610432215E-5;
-1,40824806452995E-5;
-1,04911793960535E-5;
-1,02806453311234E-5;
-1,11143840978666E-5;
-9,1479766442795E-6;
-2,5569326279904E-6;
6,70783887494885E-6;
1,43417839820389E-5;
1,70408833762647E-5;
1,49876566371145E-5;
1,14505926650124E-5;
9,89872232707372E-6;
1,10683745589032E-5;
1,24100568314573E-5;
1,0341318092255E-5;
3,41679944642243E-6;
-6,20206781059363E-6;
-1,4175601682636E-5;
-1,71434446474293E-5;
-1,50715970610884E-5;
-1,09623570406667E-5;
-8,26506560589324E-6;
-8,14997022190687E-6;
-8,82770178128042E-6;
-7,35521655775937E-6;
-2,335499378312E-6;
4,74715158796054E-6;
1,06171340006572E-5;
1,2760697526392E-5;
1,1308599875996E-5;
8,72571437876965E-6;
7,62648991409795E-6;
8,56561482591989E-6;
9,628777787709E-6;
8,12927484287352E-6;
2,98141001354426E-6;
-4,20781405111171E-6;
-1,02101909681317E-5;
-1,25254776137699E-5;
-1,11171051792166E-5;
-8,19056785571785E-6;
-6,28004241918341E-6;
-6,2460126896933E-6;
-6,78291822982689E-6;
-5,74489515976265E-6;
-2,11315238175177E-6;
3,03993719290409E-6;
7,34751345500794E-6;
8,99393199432776E-6;
8,06498872922802E-6;
6,31734525086497E-6;
5,61223726342245E-6;
6,34416317908494E-6;
7,15817608872341E-6;
6,15639604374557E-6;
2,57014901229786E-6;
-2,48073505800851E-6;
-6,74520086721481E-6;
-8,47943211776928E-6;
-7,64556737118652E-6;
-5,75041002457393E-6;
-4,52540053039248E-6;
-4,559145144917E-6;
-4,96988728201887E-6;
-4,31020242843747E-6;
-1,89284742962637E-6;
1,56997879395851E-6;
4,50639385161448E-6;
5,71162989271881E-6;
5,23289070401926E-6;
4,20875003563258E-6;
3,84297672131658E-6;
4,39014564900607E-6;
4,98311281909628E-6;
4,41192086759577E-6;
2,18466374069238E-6;
-1,00264039568825E-6;
-3,7495073419136E-6;
-4,97083306788321E-6;
-4,62858754655564E-6;
-3,62313119874072E-6;
-2,98889384661803E-6;
-3,07824763374497E-6;
-3,37686623377157E-6;
-3,04301470725631E-6;
-1,6771489666268E-6;
3,20165054923116E-7;
2,06529014525746E-6;
2,8824982757345E-6;
2,78631045579644E-6;
2,38160358648073E-6;
2,30434069862233E-6;
2,68815209121881E-6;
3,08673470492305E-6;
2,88365248177106E-6;
1,82608053347835E-6;
2,45408209931862E-7;
-1,19018933354127E-6;
-1,96301341725677E-6;
-2,03582156999995E-6;
-1,78853836241485E-6;
-1,65716963934882E-6;
-1,79109765856368E-6;
-1,99092434444428E-6;
-1,9342066401123E-6;
-1,46823973395301E-6;
-7,27105563583348E-7;
-5,4973930521649E-9;
4,73746731479613E-7;
6,97899543739895E-7;
8,16509898283922E-7;
9,81001797658625E-7;
1,22169541053536E-6;
1,45098448766323E-6;
1,55834808903408E-6;
1,4950531939668E-6;
1,28268463844783E-6;
9,66690077957827E-7;
5,82003101511929E-7;
1,6427683110978E-7;
-2,25513176193324E-7;
-5,16126448687415E-7;
-6,84720559884999E-7;
-7,98318468050123E-7;
-9,73934943562622E-7;
-1,26793760402717E-6;
-1,58957734376524E-6;
-1,73624544264005E-6;
-1,54818361586833E-6;
-1,06041926570559E-6;
-5,06537020698403E-7;
-1,42946530688995E-7;
-2,63828624787059E-8;
5,70416633002813E-8;
4,22072013037171E-7;
1,19182152364046E-6;
2,12844886840664E-6;
2,7554217702912E-6;
2,70273142187933E-6;
2,00379301410533E-6;
1,08753006026074E-6;
4,48759470197171E-7;
2,54308419675508E-7;
2,15189610056792E-7;
-1,51883779976633E-7;
-1,07771192025298E-6;
-2,28484502555387E-6;
-3,15727287090472E-6;
-3,21701351417047E-6;
-2,51693791012153E-6;
-1,60778559334576E-6;
-1,08368425368424E-6;
-1,07356056779044E-6;
-1,1142857481516E-6;
-5,39510222583958E-7;
9,16256456637996E-7;
2,80166497435697E-6;
4,2100834388319E-6;
4,43757652808168E-6;
3,51480974194795E-6;
2,17226279589705E-6;
1,25216742566381E-6;
1,03960636872549E-6;
1,06405775256027E-6;
5,42520589223027E-7;
-8,98720101980419E-7;
-2,83011654253198E-6;
-4,29848033047237E-6;
-4,56610428891727E-6;
-3,69970697821868E-6;
-2,50737481794807E-6;
-1,85737843361188E-6;
-1,93734150525879E-6;
-2,08223717815117E-6;
-1,34086177560277E-6;
6,67913870686969E-7;
3,32075710000397E-6;
5,36407888730075E-6;
5,82429466683284E-6;
4,72893846454891E-6;
3,05011732651533E-6;
1,90869665274646E-6;
1,68476422645228E-6;
1,76272631684558E-6;
1,11992295233852E-6;
-7,31814299175585E-7;
-3,24201130617053E-6;
-5,1889847298946E-6;
-5,62802550069561E-6;
-4,63617316764728E-6;
-3,22507858209342E-6;
-2,47996162325821E-6;
-2,63500316150123E-6;
-2,86582315192257E-6;
-1,99636188665696E-6;
4,46077668183544E-7;
3,70342822427914E-6;
6,24975489892412E-6;
6,89954118274796E-6;
5,67693867970677E-6;
3,7420207167938E-6;
2,43267640579977E-6;
2,20315917870859E-6;
2,32542181893605E-6;
1,59088694354953E-6;
-5,77579863196901E-7;
-3,53641316128901E-6;
-5,8568130150272E-6;
-6,43421554878062E-6;
-5,35288737719148E-6;
-3,78007612844087E-6;
-2,96694688516329E-6;
-3,18338844493751E-6;
-3,48358631292659E-6;
-2,52011901057597E-6;
2,49806201342883E-7;
3,96650501191247E-6;
6,89809706496374E-6;
7,69852985488272E-6;
6,38841610508912E-6;
4,2681732240667E-6;
2,83800413964185E-6;
2,60780228516355E-6;
2,76599561503063E-6;
1,96576703052928E-6;
-4,36354129841122E-7;
-3,72834905484093E-6;
-6,32867573838356E-6;
-7,01470565981856E-6;
-5,87525262126984E-6;
-4,19077241007417E-6;
-3,33327169601718E-6;
-3,59874047019338E-6;
-3,95343422256498E-6;
-2,92582233156461E-6;
7,79761630120355E-8;
4,12583502898894E-6;
7,33850065463424E-6;
8,25474273582226E-6;
6,89157617428292E-6;
4,6478776287879E-6;
3,13801974601732E-6;
2,9112154392927E-6;
3,09778434972325E-6;
2,25458994052816E-6;
-3,08261100029229E-7;
-3,83190311235839E-6;
-6,62978418915743E-6;
-7,39791340526846E-6;
-6,22735653079402E-6;
-4,47466278155673E-6;
-3,59317668844331E-6;
-3,89656918157674E-6;
-4,29247137390518E-6;
-3,22661118894499E-6;
-7,06853837933641E-8;
4,19620886790605E-6;
7,59859982754854E-6;
8,59973187636398E-6;
7,21304924800966E-6;
4,89941351914473E-6;
3,34540954842485E-6;
3,12533292076853E-6;
3,33351386050881E-6;
2,46698085619638E-6;
-1,9323037210764E-7;
-3,86016239351019E-6;
-6,78372769878515E-6;
-7,61048667478853E-6;
-6,4318259375055E-6;
-4,64822598777456E-6;
-3,76012049986533E-6;
-4,09154896296148E-6;
-4,51690021344933E-6;
-3,43499293200306E-6;
-1,97562378597006E-7;
4,19130746401607E-6;
7,70414584518053E-6;
8,76297438127699E-6;
7,37775900271242E-6;
5,03993281572617E-6;
3,47212903689675E-6;
3,26143622079009E-6;
3,48522051367288E-6;
2,61208895576483E-6;
-9,102971558609E-8;
-3,82518351456243E-6;
-6,81239320845915E-6;
-7,67721336073743E-6;
-6,5097441732069E-6;
-4,72685400090713E-6;
-3,8467128442268E-6;
-4,1974506537496E-6;
-4,64193794354313E-6;
-3,56276138773465E-6;
-3,04114740623207E-7;
4,12368425050999E-6;
7,67894135809459E-6;
8,77178014749635E-6;
7,40884133109159E-6;
5,08540283037828E-6;
3,52935018511229E-6;
3,33008830761153E-6;
3,56418687825747E-6;
2,69854195589321E-6;
-1,28489424228524E-9;
-3,73798172424965E-6;
-6,73591837974245E-6;
-7,62095401717413E-6;
-6,48059295350278E-6;
-4,72480566316312E-6;
-3,86467256584208E-6;
-4,22708762412103E-6;
-4,68175246942108E-6;
-3,62095406620937E-6;
-3,9185797222121E-7;
4,00475998728373E-6;
7,5448060317093E-6;
8,65124887476059E-6;
7,32759733757529E-6;
5,05056373280672E-6;
3,52743591472793E-6;
3,34111274062305E-6;
3,580908437403E-6;
2,73440566074784E-6;
7,64956812689261E-8;
-3,60853546214398E-6;
-6,57268878189864E-6;
-7,46263036314949E-6;
-6,36223336004799E-6;
-4,655191207351E-6;
-3,82480521597482E-6;
-4,19228997143127E-6;
-4,6494401408735E-6;
-3,61981279905613E-6;
-4,62326686277279E-7;
3,84484077090092E-6;
7,32158680742175E-6;
8,42426582434572E-6;
7,15349089527828E-6;
4,9489256887461E-6;
3,47591474710317E-6;
3,30356522320255E-6;
3,54507827899801E-6;
2,72716867201208E-6;
1,42894580362969E-7;
-3,44581217258998E-6;
-6,33934823910266E-6;
-7,22123298151577E-6;
-6,17091126682471E-6;
-4,5299616609638E-6;
-3,73699656623092E-6;
-4,10390024486464E-6;
-4,55701154644247E-6;
-3,56877783771306E-6;
-5,17063273064596E-7;
3,6531419028886E-6;
7,02718167036196E-6;
8,11152748389984E-6;
6,90415668458481E-6;
4,79276415528557E-6;
3,38349095947279E-6;
3,22573652522154E-6;
3,46557077816443E-6;
2,6837275795041E-6;
1,98571653682905E-7;
-3,25779152005926E-6;
-6,05084139094662E-6;
-6,91386339999076E-6;
-5,92128256562443E-6;
-4,35993083712867E-6;
-3,61021804503608E-6;
-3,97177093540185E-6;
-4,41539581521973E-6;
-3,4764770208329E-6;
-5,57589558472067E-7;
3,43783317897119E-6;
6,67760317484718E-6;
7,73160420484985E-6;
6,59545028706914E-6;
4,59314807047483E-6;
3,25804324825957E-6;
3,11515647503963E-6;
3,35045817829798E-6;
2,61038391867467E-6;
2,44239306703881E-7;
-3,05151826012149E-6;
-5,72047600710161E-6;
-6,55578741490958E-6;
-5,62646170386719E-6;
-4,15480462244226E-6;
-3,45255277585916E-6;
-3,80479558068084E-6;
-4,23446329250547E-6;
-3,3507400198075E-6;
-5,85395528292998E-7;
3,20609085065723E-6;
6,28704883366603E-6;
7,30100775748897E-6;
6,24150598722415E-6;
4,35997955093927E-6;
3,10665536739321E-6;
2,97860688334072E-6;
3,2070175671203E-6;
2,51285863881174E-6;
2,80648810728394E-7;
-2,83314220599317E-6;
-5,35999102409031E-6;
-6,1605211935191E-6;
-5,29808393196401E-6;
-3,9232213136166E-6;
-3,27121746188739E-6;
-3,61092369108561E-6;
-4,02305239424642E-6;
-3,19861389382583E-6;
-6,01922071115158E-7;
2,96414624252779E-6;
5,86798888620668E-6;
6,83429287849613E-6;
5,85480947433881E-6;
4,10203567364027E-6;
2,9356378079547E-6;
2,82215188558035E-6;
3,04176304434973E-6;
2,39629956133903E-6;
3,08573615266437E-7;
-2,60797946419911E-6;
-4,97964248224397E-6;
-5,73991160973642E-6;
-4,94637285469414E-6;
-3,67279334040025E-6;
-3,07260335940629E-6;
-3,39721259894973E-6;
-3,78901501904377E-6;
-3,02639436072024E-6;
-6,08551680035901E-7;
2,71735499992021E-6;
5,43126841334333E-6;
6,34416414875205E-6;
5,44629194682696E-6;
3,82702813257687E-6;
2,75056212111983E-6;
2,65116551813996E-6;
2,860475083076E-6;
2,26530388739025E-6;
3,28797454421419E-7;
-2,38056826510396E-6;
-4,58829770704449E-6;
-5,30423712458225E-6;
-4,58022633865798E-6;
-3,41017650987795E-6;
-2,86231847282575E-6;
-3,16986700075579E-6;
-3,5392620892942E-6;
-2,83965174873192E-6;
-6,06599391560231E-7;
2,47025880524227E-6;
4,9862152617352E-6;
5,84159136579178E-6;
5,02541699527807E-6;
3,5416636588355E-6;
2,55630724467868E-6;
2,47036396637261E-6;
2,6682319913806E-6;
2,12394033061155E-6;
3,42098004667145E-7;
-2,15472760617477E-6;
-4,19352801242602E-6;
-4,86232251236918E-6;
-4,20730660113314E-6;
-3,14111826868639E-6;
-2,64522902553356E-6;
-2,93428298224312E-6;
-3,27981915540286E-6;
-2,64327639965675E-6;
-5,97299950913707E-7;
2,22665164294539E-6;
4,54074590807923E-6;
5,33593576207989E-6;
4,60029255996621E-6;
3,25171361791164E-6;
2,35709726909343E-6;
2,28385061552825E-6;
2,46945940062612E-6;
1,97578062525004E-6;
3,49241447795626E-7;
-1,93362077841298E-6;
-3,8017155200005E-6;
-4,42163843096991E-6;
-3,83411937448117E-6;
-2,87052881530801E-6;
-2,42551944416688E-6;
-2,69510964771937E-6;
-3,01588128533419E-6;
-2,44151445085091E-6;
-5,81814103994385E-7;
1,98964571931308E-6;
4,10149027598845E-6;
4,83507112843379E-6;
4,17776012493705E-6;
2,96207939645123E-6;
2,15654756284748E-6;
2,09514961275176E-6;
2,26796667341069E-6;
1,82392411808619E-6;
3,50971924239734E-7;
-1,71981591071718E-6;
-3,41815239279236E-6;
-3,98841471583446E-6;
-3,46611861942313E-6;
-2,60254592151163E-6;
-2,20673478282532E-6;
-2,45630105483056E-6;
-2,75187485739574E-6;
-2,23801203066029E-6;
-5,61212437074147E-7;
1,76173888208816E-6;
3,67389325586474E-6;
4,34551973824861E-6;
3,76351901483212E-6;
2,67686301974373E-6;
1,95770896753278E-6;
1,90725440709787E-6;
2,06699616287703E-6;
1,67103522911116E-6;
3,48003751973842E-7;
-1,51534338372699E-6;
-3,04713629961001E-6;
-3,56775915270029E-6;
-3,10779853298958E-6;
-2,34059902403394E-6;
-1,99183552339366E-6;
-2,22116880700915E-6;
-2,49151760283075E-6;
-2,03585925093632E-6;
-5,36482320399612E-7;
1,54487652675912E-6;
3,26233877174726E-6;
3,87256815734296E-6;
3,36221445741634E-6;
2,39943956299298E-6;
1,76312043876552E-6;
1,72267013613624E-6;
1,86926246451956E-6;
1,51936835785848E-6;
3,4101665983867E-7;
-1,32175916018504E-6;
-2,69207971734371E-6;
-3,16375665912619E-6;
-2,76277256679737E-6;
-2,0874700086635E-6;
-1,78324841639468E-6;
-1,99244192948944E-6;
-2,23788273220666E-6;
-1,83764062819056E-6;
-5,08524943949387E-7;
1,34051394990784E-6;
2,87025656738701E-6;
3,42040495580879E-6;
2,97755204436746E-6;
2,13252805722561E-6;
1,57485448319014E-6;
1,54345268442136E-6;
1,67700539949907E-6;
1,3708096371148E-6;
3,30651362624886E-7;
-1,14019191462395E-6;
-2,35559731227813E-6;
-2,77958547696477E-6;
-2,43387961174767E-6;
-1,84537043065478E-6;
-1,58292260822931E-6;
-1,77232005681079E-6;
-1,99345411467545E-6;
-1,64547230466114E-6;
-4,78151698990521E-7;
1,14967876143576E-6;
2,50022196403711E-6;
2,99222366357391E-6;
2,61239163163869E-6;
1,87825309119288E-6;
1,39455762416774E-6;
1,37125677144096E-6;
1,49203154224958E-6;
1,22690481256871E-6;
3,17506940044215E-7;
-9,71406879698988E-7;
-2,03960303701704E-6;
-2,41761227112783E-6;
-2,12326201459171E-6;
-1,61599216912949E-6;
-1,39237593061663E-6;
-1,56253108140647E-6;
-1,76018992316833E-6;
-1,46105403739295E-6;
-4,46095234570611E-7;
9,73022236910751E-7;
2,15406988869849E-6;
2,59035136780547E-6;
2,2688444083387E-6;
1,63821559816211E-6;
1,2235010022873E-6;
1,20736975934498E-6;
1,31575511655107E-6;
1,08889041043216E-6;
3,02132327498896E-7;
-8,15843975779906E-7;
-1,74538965330721E-6;
-2,0794937776661E-6;
-1,83244510616352E-6;
-1,40056799502594E-6;
-1,21273920350755E-6;
-1,364374726684E-6;
-1,53957794728561E-6;
-1,28570803851856E-6;
-4,13001522639041E-7;
8,10872541775165E-7;
1,83297685101648E-6;
2,21635261676869E-6;
1,94836995630324E-6;
1,41355290203139E-6;
1,06262129751383E-6;
1,05276372626575E-6;
1,14924834820016E-6;
9,57730179714361E-7;
2,8503787597129E-7;
-6,73671769528679E-7;
-1,4737242449988E-6;
-1,76626997892322E-6;
-1,56242136714946E-6;
-1,19993434193187E-6;
-1,04481059125839E-6;
-1,178782773326E-6;
-1,3326896981927E-6;
-1,12041669460056E-6;
-3,7944039021937E-7;
6,63282850052194E-7;
1,53756242473484E-6;
1,87112382102917E-6;
1,65184771655805E-6;
1,20499868916094E-6;
9,12560028144925E-7;
9,08122045024203E-7;
9,93273865559748E-7;
8,34137770551588E-7;
2,66681438901336E-7;
-5,44828820517483E-7;
-1,22491081075296E-6;
-1,47844480116743E-6;
-1,31372075899131E-6;
-1,01457568294772E-6;
-8,89088861834381E-7;
-1,0063568984105E-6;
-1,1402335474554E-6;
-9,65875340109523E-7;
-3,4590463324921E-7;
5,30082470470827E-7;
1,26796516149764E-6;
1,55500367182864E-6;
1,37967666128823E-6;
1,01293651270218E-6;
7,73700896835066E-7;
7,73875774162193E-7;
8,48326930924744E-7;
7,18616817439496E-7;
2,47475264766556E-7;
-4,29061901815774E-7;
-9,98867714150079E-7;
-1,21606966696326E-6;
-1,08647381568167E-6;
-8,44680184505671E-7;
-7,45822746819451E-7;
-8,47417328999878E-7;
-9,6259849321672E-7;
-8,22513199368587E-7;
-3,12820409480873E-7;
4,10904349228078E-7;
1,02392004306658E-6;
1,26784548989529E-6;
1,13183220675116E-6;
8,37450443086127E-7;
6,46210298771366E-7;
6,50247946504865E-7;
7,14669759366824E-7;
6,11475348566456E-7;
2,27786732891947E-7;
-3,25961719387858E-7;
-7,95191687333025E-7;
-9,78816160972007E-7;
-8,80485433654102E-7;
-6,9018647744161E-7;
-6,15040509661787E-7;
-7,02041990033595E-7;
-7,99907481602159E-7;
-6,90541005534155E-7;
-2,80543711454096E-7;
3,05234521127433E-7;
8,0482750944915E-7;
1,00910562589882E-6;
9,07943655656073E-7;
6,78371330903712E-7;
5,30067188900159E-7;
5,37274334506869E-7;
5,92363419437368E-7;
5,12861216143039E-7;
2,07939579202045E-7;
-2,3499258818613E-7;
-6,13215874231085E-7;
-7,6604523993298E-7;
-6,95277035167364E-7;
-5,50815402262239E-7;
-4,96592291600128E-7;
-5,7010777807641E-7;
-6,52051918589524E-7;
-5,69975293461702E-7;
-2,49369914123614E-7;
2,12437151012216E-7;
6,09823059134133E-7;
7,77916354830204E-7;
7,07354041361273E-7;
5,35327875107842E-7;
4,25090925505598E-7;
4,34833603579476E-7;
4,81306160244429E-7;
4,22782073020042E-7;
1,88211881359179E-7;
-1,55526779782409E-7;
-4,52061167903354E-7;
-5,7686071310163E-7;
-5,30152383076824E-7;
-4,26121042863599E-7;
-3,90173250264809E-7;
-4,51316460543979E-7;
-5,1872964591112E-7;
-4,60673772491267E-7;
-2,19540121594162E-7;
1,31788114304668E-7;
4,37827329185378E-7;
5,73147799259916E-7;
5,29175857195437E-7;
4,07774014706215E-7;
3,30971641919165E-7;
3,42680361492441E-7;
3,81251988286742E-7;
3,41125510643051E-7;
1,68846331919065E-7;
-8,68652561458787E-8;
-3,10689926998559E-7;
-4,10171505433849E-7;
-3,84234970918971E-7;
-3,15515469477021E-7;
-2,95358173840062E-7;
-3,45235463311159E-7;
-3,99486347556676E-7;
-3,62363562409022E-7;
-1,91243229732935E-7;
6,24981242213875E-8;
2,87598042663578E-7;
3,93470688255569E-7;
3,72338499113929E-7;
2,95030099517866E-7;
2,47299930656476E-7;
2,60459771262768E-7;
2,91841398943075E-7;
2,67685464466442E-7;
1,5004144655843E-7;
-2,82595714634816E-8;
-1,87937400415632E-7;
-2,64736115190726E-7;
-2,56513005160399E-7;
-2,18305796284804E-7;
-2,11627259386967E-7;
-2,51323813167373E-7;
-2,93742456515783E-7;
-2,74657934685361E-7;
-1,64617716891946E-7;
3,73878162871278E-9;
1,5777816278966E-7;
2,37408279823821E-7;
2,35643165793499E-7;
1,96315992413913E-7;
1,73579339667029E-7;
1,87739199389091E-7;
2,12624573608554E-7;
2,02169196012642E-7;
1,31963545693021E-7;
2,10665679569203E-8;
-8,25612823204743E-8;
-1,39204244731143E-7;
-1,4587305160835E-7;
-1,33718850005711E-7;
-1,38383153965204E-7;
-1,68950155979529E-7;
-2,00820903054676E-7;
-1,97086953365326E-7;
-1,39765273728782E-7;
-4,53446732838566E-8;
4,69330311978771E-8;
1,03378297405501E-7;
1,17788823278331E-7;
1,10777340024801E-7;
1,09255069890134E-7;
1,2401767199529E-7;
1,43080682879771E-7;
1,44227597539256E-7;
1,1474589718162E-7;
6,18999641170643E-8;
6,73705450054271E-9;
-3,21572870879318E-8;
-5,11408309695555E-8;
-6,09250247833418E-8;
-7,49793730549818E-8;
-9,74270101072505E-8;
-1,19972419542124E-7;
-1,29117063782109E-7;
-1,16749011530768E-7;
-8,56083541553667E-8;
-4,6418286028592E-8;
-1,02633467950933E-8;
1,74163966798769E-8;
3,75061484277956E-8;
5,37264083428752E-8;
6,87511481522107E-8;
8,26374634773341E-8;
9,34603695413161E-8;
9,84933184235392E-8;
9,50267357861269E-8;
8,12792895757551E-8;
5,7864940039087E-8;
2,89014951038921E-8;
9,41226229022364E-10;
-2,07315731962553E-8;
-3,60214872854557E-8;
-5,0398038476681E-8;
-7,01641989376108E-8;
-9,55980208796218E-8;
-1,17901741756407E-7;
-1,23770798900715E-7;
-1,05189967645949E-7;
-6,68664846597335E-8;
-2,44317285656215E-8;
6,36847458624539E-9;
2,13624826836055E-8;
3,0686267626404E-8;
4,94316698110164E-8;
8,32796480836854E-8;
1,21222371589938E-7;
1,42387388646854E-7;
1,32325785006641E-7;
9,54864189381598E-8;
5,27640696698224E-8;
2,50655376144524E-8;
1,60253085732719E-8;
8,7307661170352E-9;
-1,96106155567242E-8;
-7,6312529930851E-8;
-1,43056762980525E-7;
-1,86608621250046E-7;
-1,8307180086231E-7;
-1,36458919963114E-7;
-7,59846679603731E-8;
-3,3462499681183E-8;
-1,87427339434672E-8;
-1,34022046027104E-8;
1,16820811942128E-8;
6,91577734780817E-8;
1,41235392065693E-7;
1,91362421552467E-7;
1,92682592238718E-7;
1,49839140716748E-7;
9,54222182733234E-8;
6,31197962172474E-8;
5,94794794410838E-8;
5,82552659742846E-8;
2,31748265072379E-8;
-5,88719721000304E-8;
-1,61870726386182E-7;
-2,36386573278525E-7;
-2,45560735635342E-7;
-1,92743148414721E-7;
-1,18091952675417E-7;
-6,64121274070765E-8;
-5,21657450194989E-8;
-5,02666771656209E-8;
-2,02622657649223E-8;
5,61558911735553E-8;
1,55785620533549E-7;
2,2947694480853E-7;
2,40360126324883E-7;
1,93162795326392E-7;
1,29790282555383E-7;
9,41397519867343E-8;
9,51088785793906E-8;
9,90209942910462E-8;
5,88354593463905E-8;
-4,32316838838988E-8;
-1,75108612588801E-7;
-2,74513383529828E-7;
-2,94256915238741E-7;
-2,37071053907396E-7;
-1,51681926273197E-7;
-9,31205478833704E-8;
-7,95077132860777E-8;
-8,05446399278015E-8;
-4,6876598575535E-8;
4,42863516515084E-8;
1,65555981778464E-7;
2,57946806938579E-7;
2,76731545047017E-7;
2,2662697574197E-7;
1,56718465967817E-7;
1,18817245751103E-7;
1,23666485275983E-7;
1,31856426882907E-7;
8,80072856385928E-8;
-2,93317682377253E-8;
-1,83493521809975E-7;
-3,02339834898686E-7;
-3,30702574142727E-7;
-2,70745784070994E-7;
-1,77651628266399E-7;
-1,14211901957756E-7;
-1,01357195774198E-7;
-1,0486481983674E-7;
-6,86383350027501E-8;
3,35428892861945E-8;
1,71190899625147E-7;
2,77937118274685E-7;
3,03115456975251E-7;
2,51350689562239E-7;
1,77023757649765E-7;
1,3782401529492E-7;
1,45884045201056E-7;
1,57571004584488E-7;
1,1131921395798E-7;
-1,7097590148145E-8;
-1,87699909431428E-7;
-3,21142846561058E-7;
-3,56369453725426E-7;
-2,95015219645276E-7;
-1,968610789807E-7;
-1,30290703411966E-7;
-1,18284791994602E-7;
-1,23837719798804E-7;
-8,60154543663475E-8;
2,39060323422146E-8;
1,73289013297738E-7;
2,90544318196043E-7;
3,20757186563051E-7;
2,68399435822459E-7;
1,9148888205498E-7;
1,518013501082E-7;
1,62467117606633E-7;
1,76945820268118E-7;
1,29377514045811E-7;
-6,44473234529188E-9;
-1,88358148499813E-7;
-3,32129264402023E-7;
-3,72642390695702E-7;
-3,11057923667419E-7;
-2,1013050252182E-7;
-1,41934704862539E-7;
-1,3084184417236E-7;
-1,38050913378245E-7;
-9,9459142882113E-8;
1,53438359855409E-8;
1,72401537380068E-7;
2,9679220207592E-7;
3,30828746677493E-7;
2,78774627429647E-7;
2,00851991540864E-7;
1,61363734271394E-7;
1,74086401305131E-7;
1,90723456142779E-7;
1,42766556556598E-7;
2,72063804700022E-9;
-1,86042143414207E-7;
-3,36416251855179E-7;
-3,80818605407571E-7;
-3,19980445272743E-7;
-2,182317926157E-7;
-1,49692005012107E-7;
-1,39548043065692E-7;
-1,48065022171347E-7;
-1,09407894377241E-7;
7,81526879070405E-9;
1,69039722117228E-7;
2,97634796849585E-7;
3,34418956543644E-7;
2,83414098000271E-7;
2,05805973628008E-7;
1,67083627809922E-7;
1,81373665997863E-7;
1,99607567313651E-7;
1,52045249471793E-7;
1,04976823903255E-8;
-1,81282839183371E-7;
-3,35041671722022E-7;
-3,8210160129777E-7;
-3,22812147962665E-7;
-2,21883688448133E-7;
-1,5407709531064E-7;
-1,44900650588175E-7;
-1,54410890182678E-7;
-1,16275782907863E-7;
1,26983117771951E-9;
1,63661913670648E-7;
2,93944508569994E-7;
3,32534241318296E-7;
2,8318385513421E-7;
2,0699415134977E-7;
1,69501798042033E-7;
1,8492443929718E-7;
2,04258095104524E-7;
1,57735485780109E-7;
1,69878289748221E-8;
-1,74553375144676E-7;
-3,28951418618658E-7;
-3,77598075044501E-7;
-3,20505867226558E-7;
-2,21758328350796E-7;
-1,555710698834E-7;
-1,47359154684675E-7;
-1,57585390479309E-7;
-1,20456120979956E-7;
-4,34682300729459E-9;
1,56683288172881E-7;
2,86521063867262E-7;
3,26099650924279E-7;
2,78881168008513E-7;
2,05009819989113E-7;
1,69115737278042E-7;
1,85288514989631E-7;
2,05286794345222E-7;
1,6032843582251E-7;
2,22971222880315E-8;
-1,66283824903796E-7;
-3,19012872183909E-7;
-3,68319114783108E-7;
-3,1392739540524E-7;
-2,18465369921358E-7;
-1,54615950506789E-7;
-1,47352501715844E-7;
-1,58050519775488E-7;
-1,22315587698381E-7;
-9,09247044411478E-9;
1,4847692023638E-7;
2,76085136808155E-7;
3,15950153825223E-7;
2,71230977843042E-7;
2,00396050791786E-7;
1,66380659664581E-7;
1,82968994244734E-7;
2,0326059758127E-7;
1,60282098493092E-7;
2,65285425459094E-8;
-1,56854339012362E-7;
-3,06001159300295E-7;
-3,55180944408871E-7;
-3,0387103022803E-7;
-2,12567563497888E-7;
-1,51620469156981E-7;
-1,45273730538269E-7;
-1,56229263039223E-7;
-1,22194730273858E-7;
-1,30329178249863E-8;
1,39368561212874E-7;
2,63286048720018E-7;
3,02840569574087E-7;
2,60889109105178E-7;
1,936456404761E-7;
1,61716819994961E-7;
1,78434379716288E-7;
1,98697182121278E-7;
1,58016343725032E-7;
2,97859892982151E-8;
-1,46601494500798E-7;
-2,90612827568199E-7;
-3,39005940668906E-7;
-2,91047571408E-7;
-2,04570552765774E-7;
-1,46955579872547E-7;
-1,41485359050443E-7;
-1,52515216192974E-7;
-1,20409107767324E-7;
-1,62295131981332E-8;
0,0093335636929653;
0,0226299785260084;
0,0163730247258249;
0,009433344622339;
0,0121695769876695;
0,00702632283163714;
0,00563498923243669;
0,00458290212174883;
0,000840654004653636;
0,00103242454213609;
-0,00119057531032625;
-0,00199222612058906;
-0,00280745745863152;
-0,00455395741431995;
-0,0048875199311601;
-0,00585604166301832;
-0,00594135358742318;
-0,00618263558446428;
-0,00699369391363817;
-0,00792072229726748;
-0,00934876843320718;
-0,0102426558744317;
-0,0105182290238408;
-0,01010828872222;
-0,00920748920596899;
-0,00843014873160667;
-0,00783026981506112;
-0,00745728769860755;
-0,00704790495167732;
-0,00641864328830932;
-0,0056755783794411;
-0,00495874236807099;
-0,00445338179785202;
-0,0040910269833576;
-0,00366400991969926;
-0,00302670135569325;
-0,00222836259599022;
-0,00157296985778821;
-0,00136118942421132;
-0,00166526623148634;
-0,00222561609886006;
-0,00258684563500881;
-0,00240651018877586;
-0,00165696543722092;
-0,000624569242743613;
0,000316809425101444;
0,000963819045812889;
0,00137604313453085;
0,00176527331449643;
0,00227849663928394;
0,00287359822381165;
0,00337797307363044;
0,00366466312577833;
0,00378418361418633;
0,0039245753469493;
0,00423332194894335;
0,00465398018420984;
0,00492899611269859;
0,00478528831248054;
0,0041620338926871;
0,00329849323154717;
0,00260140392504842;
0,00238427994823544;
0,00267153789033936;
0,00320932407525266;
0,00366552629721903;
0,00385891417708215;
0,00384610845558215;
0,00381743893664075;
0,00390622391540672;
0,00407628671401013;
0,00417440343788532;
0,00408889085435034;
0,00386571477200458;
0,00367379081720754;
0,00364540158336589;
0,00373076848178025;
0,00370113098026389;
0,00331384696771659;
0,00251553195369945;
0,00151965346191674;
0,000688270497596145;
0,000300135440753143;
0,000376683524819978;
0,000692176754497109;
0,000951553718489443;
0,000993891046947083;
0,000869336209867723;
0,000746430265582696;
0,000742970701716123;
0,000826444082244049;
0,000860717822402693;
0,000746540173983132;
0,000524171519833508;
0,000342494490517094;
0,000317809702437024;
0,000405445298007737;
0,000402743680818452;
9,50240111538238E-5;
-0,000565204276813369;
-0,0107235371240862;
-0,0246908391897732;
-0,018706159789561;
-0,0116221884081655;
-0,0139971088353196;
-0,00853581117750677;
-0,00701179592300752;
-0,00596888160177643;
-0,00223022300411856;
-0,0023172375367833;
8,96846740353489E-5;
0,00103445821193484;
0,00186452949912099;
0,00353241584452874;
0,00382379202376279;
0,00488776299228302;
0,00516646363071403;
0,00552134829839296;
0,00617826377871031;
0,00664174925382651;
0,00746071878580099;
0,00787774382674011;
0,00802176201574492;
0,00784068488224399;
0,00735474259314983;
0,00695115799495128;
0,00656003272837197;
0,00626856139165329;
0,00594155868991242;
0,00548469141263984;
0,00497847919461631;
0,00445863735858308;
0,00403444481931231;
0,00366766506061889;
0,00326323224876959;
0,00276314348361301;
0,0021821792958909;
0,00167045098456376;
0,00136614211105811;
0,00130573748977196;
0,00137153246100348;
0,0013481751391538;
0,00107714807958402;
0,000543722808668337;
-0,000116227978631778;
-0,000724490653787165;
-0,00118424267646473;
-0,0015223312915952;
-0,00184014624125271;
-0,00220791256888271;
-0,00260538038324706;
-0,00294938282950584;
-0,00317793991819833;
-0,00331538489933512;
-0,00345303204867493;
-0,00366317500960955;
-0,00391880425854921;
-0,00409386849462085;
-0,00405394892095164;
-0,00376840593086141;
-0,00335496757144389;
-0,00301526905054464;
-0,00290588871441881;
-0,0030402826411708;
-0,00329281434801701;
-0,00349784359936313;
-0,00356456714176247;
-0,00352154252423854;
-0,00346512650125164;
-0,00346336953605427;
-0,00349858344080792;
-0,00349327499307308;
-0,0033906518278788;
-0,00321432921715697;
-0,00305125447733113;
-0,00297009547753986;
-0,00294594157792486;
-0,00286100595907308;
-0,0025894634682825;
-0,00210311344319602;
-0,00151279100030398;
-0,0010077790478924;
-0,000734873446523477;
-0,000706461532149092;
-0,00080464776579564;
-0,000874128560234745;
-0,00082974581933466;
-0,000698027178093419;
-0,000568777844970728;
-0,000505218028097161;
-0,000490352785934016;
-0,000451333108042796;
-0,000334681390971833;
-0,000161957130170742;
-1,37308035433382E-5;
4,65883266078552E-5;
4,28752919704423E-5;
8,54965822745975E-5;
0,00029218913783297;
0,00068970949628133;
0,00117545109721229;
0,00157397657362856;
0,00174953623722427;
0,0016914130188919;
0,00150990031180109;
0,00134989777802578;
0,0012910474722132;
0,00130929452869837;
0,00132192322799875;
0,00127093077568253;
0,00117267668974794;
0,00109521061576934;
0,00108855639545559;
0,00113322661143048;
0,00115514809913814;
0,00109617241286679;
0,000978863735811715;
0,000905647530487344;
0,000985622118866474;
0,00124375318172093;
0,00158557445954911;
0,00184950693471049;
0,00191070663016734;
0,00175967783507476;
0,00149840603149129;
0,00126062524758445;
0,00111983717609291;
0,00105402080671739;
0,000987192572240679;
0,000866144458865031;
0,000706047629574468;
0,000569527097386107;
0,000502568250123647;
0,000487274712183009;
0,000455655672345303;
0,000354378591838874;
0,000204158801294336;
9,88769065967187E-5;
0,000138417843544183;
0,000345493201964612;
0,000633429109396023;
0,000854198746807216;
0,000893511165644857;
0,000742658040551692;
0,0004948390964489;
0,00027217133239661;
0,000141636739133687;
8,2934796473055E-5;
2,65288871658169E-5;
-7,6280165847218E-5;
-0,000211794149994868;
-0,000323075139172458;
-0,000368405031770499;
-0,000364294398946576;
-0,000372849674409976;
-0,000442776989821905;
-0,000555367954735292;
-0,000625392462937397;
-0,000562241827008772;
-0,000345521016778191;
-5,42156825014154E-5;
0,000177053281152997;
0,000244410889863921;
0,000139874960701127;
-5,20997112814883E-5;
-0,000220910697906671;
-0,000306009137353925;
-0,00032595535394926;
-0,000343867529774253;
-0,000403941501668663;
-0,000493875551920432;
-0,000562269896610709;
-0,0005715249917896;
-0,000536687089015042;
-0,000513967188133298;
-0,000547417689321991;
-0,000620197624647478;
-0,00065545897136795;
-0,000571567673550615;
-0,000350255559451594;
-6,28210060142158E-5;
0,000169391508447236;
0,000252833600879066;
0,000180351857764761;
2,79686319079718E-5;
-0,00010483713809034;
-0,000163658259195473;
-0,000165209735580296;
-0,000166205723963895;
-0,000206317440564593;
-0,000274475881872749;
-0,000324546617866868;
-0,000322807937260547;
-0,000282751260226881;
-0,000254732218547113;
-0,000278167637938456;
-0,000337923553845917;
-0,000365181300593503;
-0,000286901956993089;
-8,67661841375568E-5;
0,00950491788845179;
0,0230091838258776;
0,016826403898319;
0,00982092917576769;
0,0124192737847963;
0,0071547735257635;
0,00570736399290388;
0,00464954372499979;
0,00090148597165354;
0,00105213225024639;
-0,00123742533538407;
-0,00209004628270769;
-0,00291069769186181;
-0,00462903273411225;
-0,00494549130390502;
-0,00594285278458085;
-0,00608942416011507;
-0,00636330346629143;
-0,00711355368227327;
-0,0078719344115746;
-0,00907995487800386;
-0,00979836131310367;
-0,0100167957873027;
-0,0096735477194117;
-0,0089031643086867;
-0,00824146934822306;
-0,00769956262938373;
-0,00733996585667815;
-0,00694387520440145;
-0,00635887439560609;
-0,00568228641243258;
-0,00501795358450816;
-0,00452471277291778;
-0,00414463477435249;
-0,00370934946358111;
-0,00310389746807944;
-0,00236561038009931;
-0,00174474337480384;
-0,00148507957296553;
-0,00164622136579764;
-0,00201819048659842;
-0,00222977916767611;
-0,00200324984622096;
-0,00131573127226816;
-0,000400880925664204;
0,000436187252802612;
0,00102966479199269;
0,00142766647210219;
0,00180306526298947;
0,00227570226932049;
0,00281111571266583;
0,00326829591295121;
0,00354331328384951;
0,00367746339744187;
0,0038245106515007;
0,00410521556793676;
0,00447353532343087;
0,00471867831769551;
0,0046170263885753;
0,00411870091347134;
0,00341979738635752;
0,00285389464497241;
0,00267832887818538;
0,00291339591394738;
0,00335096645197406;
0,00371852502262825;
0,00386734608421442;
0,00384409450278183;
0,00380540452566062;
0,00386111318875034;
0,00398166069876657;
0,00404111184446649;
0,00394764627127073;
0,00373924801017832;
0,00355525485682295;
0,0035049164285812;
0,00354742462255685;
0,00349428194495009;
0,00314538674202519;
0,00245672375968531;
0,00160461676766995;
0,000888259209131793;
0,00053818203625122;
0,00057230949581362;
0,000804132136670075;
0,00098966340275148;
0,000995804771437261;
0,000864166369971508;
0,000734461401196919;
0,000704421401474203;
0,000747194822222814;
0,000749946540944669;
0,000630359426904679;
0,000421872802220182;
0,000248161261988555;
0,000205923142747366;
0,000258138896091511;
0,00023639994727273;
-3,78351602157354E-5;
-0,000604132371220542;
-0,0106396449569176;
-0,0245085693482904;
-0,0184908112408028;
-0,0114420029414502;
-0,013887097749821;
-0,0084877760765889;
-0,0069940262972193;
-0,00595688623258723;
-0,00222384015986074;
-0,00233321607486099;
3,93823034557287E-5;
0,000957494629485506;
0,00178281116719084;
0,00346210352399226;
0,00375986560979297;
0,0048087596281903;
0,00505736248916614;
0,00539585151590892;
0,00608033527612726;
0,00662195681008833;
0,00754320837693255;
0,00804208395328819;
0,00821342275182258;
0,00800271307474144;
0,00745791518009298;
0,00700225373352051;
0,00658539301892735;
0,00628851662319853;
0,00595622748685688;
0,00548016774207387;
0,004944841091414;
0,00440222943724659;
0,00397339635049664;
0,00361534197463225;
0,00321549602177108;
0,00270229428846143;
0,00209585166455867;
0,00156995951083455;
0,00128770346669972;
0,00129096899307327;
0,00144030859025017;
0,00148376383566306;
0,00123486725355465;
0,000676935323961106;
-3,14365884046483E-5;
-0,00068258969638039;
-0,00116373033392473;
-0,0015066209115633;
-0,00182912610994263;
-0,00221287928955609;
-0,00263437804874378;
-0,00299723801490448;
-0,00322992607991536;
-0,00336065008904344;
-0,0034949003660084;
-0,00371592573327453;
-0,00399238873540527;
-0,0041791241634291;
-0,00412166047131035;
-0,00378504540029685;
-0,00330452100387282;
-0,00291112888944735;
-0,00278384752025617;
-0,00293766867324108;
-0,00322875452961742;
-0,00346793553788665;
-0,00355167648181804;
-0,00351246335073765;
-0,00345976284998145;
-0,00347067967115174;
-0,0035249334643105;
-0,00353455804329728;
-0,00343521526088425;
-0,00325359603809119;
-0,0030878332231829;
-0,00301521019314397;
-0,00300739373637588;
-0,00293158251993915;
-0,0026462491403225;
-0,00211985469231364;
-0,00147695591664723;
-0,000929789590649968;
-0,000642581010211418;
-0,000628878707174621;
-0,000756632880852024;
-0,000852302742017029;
-0,00082089406257507;
-0,000691980366740506;
-0,000565470269857106;
-0,000511536146160963;
-0,000511180562145324;
-0,000483530110675436;
-0,000369350767461868;
-0,000192564244422062;
-4,22608964021741E-5;
1,16185425806626E-5;
-4,43481970239456E-6;
3,13116507965314E-5;
0,000248427937929258;
0,000676144234780865;
0,00120150521657873;
0,00163185385509138;
0,00181842589118231;
0,00174967557446136;
0,00154645984321805;
0,00136722267443177;
0,00129887607529339;
0,00131510217671509;
0,00132574514366567;
0,00126771099088715;
0,00115884001836059;
0,00107304103812842;
0,00106451333455061;
0,00111203879787826;
0,00113537953365765;
0,00107169554360303;
0,000945454993470129;
0,000867231261316073;
0,000954545034786837;
0,00123407509903312;
0,00160397894742032;
0,00189050762113624;
0,00195968818676746;
0,00180148871098516;
0,00152530126368016;
0,00127428046437374;
0,00112694439492049;
0,00105969665285464;
0,0009914505326803;
0,000865538670989527;
0,000698155289518207;
0,000555887371885738;
0,000487511578985419;
0,000473954128173237;
0,00044312016566212;
0,000338594130782953;
0,000182372124903314;
7,36705840258014E-5;
0,000117818716335534;
0,000338578147373126;
0,000644492622900604;
0,000879768657979549;
0,000924372438154291;
0,000769313879852677;
0,000512450828500585;
0,00028173287547504;
0,000147198699052542;
8,75699023576426E-5;
3,02363766025563E-5;
-7,55442986785152E-5;
-0,000215448651072046;
-0,0003302224632459;
-0,000376556091545536;
-0,000371657990711233;
-0,000379954485424146;
-0,0004518433574265;
-0,000567875398332791;
-0,000639916314114634;
-0,000574486278452807;
-0,000350712339829407;
-5,01233575100382E-5;
0,000188691474125633;
0,000259033265696333;
0,000152857086580092;
-4,30908965259199E-5;
-0,000215463332371709;
-0,000302340086634452;
-0,000322745976845816;
-0,000341129670480317;
-0,000402515182024865;
-0,000494317394758186;
-0,000564231534968043;
-0,000574094466011251;
-0,000539239459615302;
-0,000516670487352951;
-0,000550942037948697;
-0,000624934679473956;
-0,000660974120880015;
-0,000576752045207425;
-0,000354010022956638;
-6,46796904380655E-5;
0,000169163348442583;
0,000253632679938545;
0,000181698497088409;
2,96617210160195E-5;
-0,000102877837710343;
-0,000161573047116603;
-0,000163167754027234;
-0,000164228632985581;
-0,000204225750972605;
-0,000272096656494219;
-0,000321996499548004;
-0,000320509140495617;
-0,00028106546560803;
-0,000253524453514629;
-0,000276801463963348;
-0,000335874661782837;
-0,000362850765890677;
-0,000285866642738071;
-8,90225377882097E-5;
0,000164912935875538;
0,000369535209023648;
0,000443116077820188;
0,000379646880704611;
0,00024564774464873;
0,000127834195695128;
7,3489589482206E-5;
6,80790799238691E-5;
6,25042010124198E-5;
2,2561509847235E-5;
-4,20792954640883E-5;
-9,16059620710992E-5;
-9,70249855658105E-5;
-6,99504301767419E-5;
-5,35139776103957E-5;
-8,132746186274E-5;
-0,000140326005798565;
-0,000171772585895109;
-0,000113576103243052;
4,79667519905888E-5;
0,000258669187926477;
0,000426782203430957;
0,000481930708469915;
0,000419037544692234;
0,000295461033299553;
0,000185863752485727;
0,000130917499343536;
0,000118130145069209;
0,000105345634954887;
6,32419766047481E-5;
1,59313777065375E-7;
-4,97408307588321E-5;
-6,16124822066093E-5;
-4,54081323756363E-5;
-3,80330641815135E-5;
-6,82036490822787E-5;
-0,000124713157123666;
-0,00015736979251116;
-0,000113191307152308;
1,94581167423836E-5;
0,000194327881374965;
0,000333231593992958;
0,000376282175389561;
0,000319221989644808;
0,000210877531704741;
0,000114710396737845;
6,52391971262158E-5;
5,18327749640772E-5;
3,87270167694112E-5;
1,081454611867E-6;
-5,40254061021029E-5;
-9,76832676622699E-5;
-0,000108903120869984;
-9,61272913666931E-5;
-9,05389898551908E-5;
-0,000116364194677971;
-0,000164135482215542;
-0,000191560495791025;
-0,000154067054723498;
-4,19357404416958E-5;
0,000105878759840997;
0,00022365851969039;
0,000261147382134053;
0,00021482169551995;
0,000125647587751863;
4,67818094227491E-5;
7,0836779992067E-6;
-2,37437548321513E-6;
-1,14954149569511E-5;
-4,10150136361928E-5;
-8,50179497662394E-5;
-0,000119411549733189;
-0,000126741662976619;
-0,000114065974200073;
-0,000107327427904327;
-0,000126642498495742;
-0,000164135579006979;
-0,000184736744622962;
-0,000151555961728308;
-5,66153613266043E-5;
6,7805125063928E-5;
0,000167380110026222;
0,000200647791364435;
0,00016475599879183;
9,35049960946404E-5;
3,06633572390088E-5;
-5,73236492855975E-8;
-6,02202582242851E-6;
-1,17872424947951E-5;
-3,43442606112487E-5;
-6,88287810340999E-5;
-9,55209523344409E-5;
-0,00010016962112106;
-8,85627436581453E-5;
-8,18726363239778E-5;
-9,64757697165269E-5;
-0,00012593400036475;
-0,00014172191230406;
-0,000113905619713191;
-3,60726920545334E-5;
6,55591248589478E-5;
0,000146995168475421;
0,000174743823252157;
0,000146565090017093;
8,97801809671732E-5;
3,96733472741369E-5;
1,53108856555705E-5;
1,07488131844946E-5;
6,26781200025324E-6;
-1,17369332687839E-5;
-3,93450937273224E-5;
-6,07769596991351E-5;
-6,46637590708853E-5;
-5,56422227076742E-5;
-5,0580360284846E-5;
-6,24824413465924E-5;
-8,62025182749692E-5;
-9,91027728370509E-5;
-7,75028987308382E-5;
-1,63919627689215E-5;
6,34678686872524E-5;
0,000127368484600611;
0,00014897759988743;
0,000126603257924043;
8,17503977698001E-5;
4,2092034296102E-5;
2,25304329708757E-5;
1,8396976087501E-5;
1,43067364904882E-5;
-3,1333254224661E-7;
-2,23897902207622E-5;
-3,96699914616682E-5;
-4,33635691860452E-5;
-3,70778410190321E-5;
-3,38348190438283E-5;
-4,36286510298088E-5;
-6,24705296093573E-5;
-7,29804056382688E-5;
-5,70582387933093E-5;
-1,09422167790838E-5;
4,94695969219398E-5;
9,7743002759722E-5;
0,000113919024964207;
9,67887785202901E-5;
6,2676612216229E-5;
3,24819893098084E-5;
1,74029971010763E-5;
1,39030077506054E-5;
1,04452390202079E-5;
-8,54700331108158E-7;
-1,76788022815469E-5;
-3,09065936233E-5;
-3,40361220998964E-5;
-2,97636763573903E-5;
-2,77057707902562E-5;
-3,51939606439578E-5;
-4,92674838336976E-5;
-5,72014080893069E-5;
-4,58322154033055E-5;
-1,25020928651589E-5;
3,11893239223127E-5;
6,61146164824388E-5;
7,7938570335573E-5;
6,58748556457022E-5;
4,16751842876692E-5;
2,0265491585486E-5;
9,57901683775188E-6;
7,07561215941005E-6;
4,60501323361494E-6;
-3,35335344521764E-6;
-1,51480775171281E-5;
-2,44136087841476E-5;
-2,66591662690863E-5;
-2,37808460066632E-5;
-2,24060836921502E-5;
-2,75315763809278E-5;
-3,70999541422951E-5;
-4,24679448380372E-5;
-3,47967395822979E-5;
-1,23935744005303E-5;
1,69062259937422E-5;
4,03685192299013E-5;
4,85749925844987E-5;
4,11070732410867E-5;
2,57207733772729E-5;
1,21263007425813E-5;
5,40858965801801E-6;
3,8976285259922E-6;
2,39577079198888E-6;
-2,55832285535356E-6;
-9,89433096659867E-6;
-1,56445859283027E-5;
-1,70670189224414E-5;
-1,53606352480482E-5;
-1,45543745772269E-5;
-1,76169782293086E-5;
-2,32758950473975E-5;
-2,64294122598288E-5;
-2,19878687057005E-5;
-9,09251980434747E-6;
7,68481383039805E-6;
2,11469100863489E-5;
2,61304008738558E-5;
2,25341156008399E-5;
1,46598290932813E-5;
7,71237575812889E-6;
4,31867049740142E-6;
3,56082141193028E-6;
2,78819232982469E-6;
3,14215011167708E-7;
-3,29165949981087E-6;
-6,12593111453633E-6;
-6,95016735238711E-6;
-6,36265887200756E-6;
-6,15839455782693E-6;
-7,56440227802225E-6;
-9,98240115644897E-6;
-1,13490501234654E-5;
-9,78805117862546E-6;
-5,15323842772988E-6;
7,80341933831106E-7;
5,55518858691328E-6;
7,64698980912937E-6;
7,2250266987428E-6;
5,63978173718203E-6;
4,25015555030034E-6;
3,58688169867078E-6;
3,37405896636445E-6;
3,13124679417857E-6;
2,68242219242726E-6;
2,1701182680118E-6;
1,74241709335321E-6;
1,36052559977645E-6;
9,37011140867019E-7;
5,72894724855275E-7;
5,17597040887007E-7;
7,96965379759894E-7;
9,00664330568578E-7;
-1,38925304824791E-8;
-2,40165656722665E-6;
-5,67252822860506E-6;
-8,28060372959091E-6;
-8,67970731651948E-6;
-6,47368710471959E-6;
-2,8000107415101E-6;
4,61551113211812E-7;
2,07838004147209E-6;
2,31473067496103E-6;
2,51317902931193E-6;
3,76489783375489E-6;
5,85328778776004E-6;
7,45456101272238E-6;
7,46042376715717E-6;
6,21143659701768E-6;
5,39408098354841E-6;
6,49060542527675E-6;
9,04775702480426E-6;
1,04075573345062E-5;
7,46162246846765E-6;
-7,44267078350814E-7;
-1,16505225256505E-5;
-2,03822135363403E-5;
-2,28431285227715E-5;
-1,84500804638006E-5;
-1,04047053162929E-5;
-3,27030552581009E-6;
2,61239549686541E-7;
9,01259254775265E-7;
1,49835859212341E-6;
4,18887833158008E-6;
8,45904340576479E-6;
1,17718755576622E-5;
1,213898408321E-5;
1,02534316771801E-5;
9,10432772150178E-6;
1,11850479941379E-5;
1,56483744959509E-5;
1,80764764684209E-5;
1,35073388598545E-5;
5,80084487873022E-7;
-1,65357655667266E-5;
-3,02488213378199E-5;
-3,43853032847283E-5;
-2,82109645142579E-5;
-1,66069110481887E-5;
-6,31633887166682E-6;
-1,21459591041938E-6;
-2,27509139267038E-7;
7,12563863877223E-7;
4,58626988247986E-6;
1,06389346798674E-5;
1,535461564569E-5;
1,60362439002186E-5;
1,36612230128146E-5;
1,22658197120247E-5;
1,51544313797732E-5;
2,1162935376692E-5;
2,44638437743089E-5;
1,86135015342601E-5;
1,92794476634175E-6;
-2,01375045860827E-5;
-3,78269735980577E-5;
-4,33146326036977E-5;
-3,57474628951683E-5;
-2,13396993711014E-5;
-8,56124384849064E-6;
-2,22281719175806E-6;
-9,63068262798514E-7;
2,46881196907134E-7;
5,05169190827821E-6;
1,25064207114355E-5;
1,83264390119664E-5;
1,92598160973594E-5;
1,65071879581236E-5;
1,49230134986756E-5;
1,844347893685E-5;
2,5656653987387E-5;
2,96389712544809E-5;
2,27980328565484E-5;
3,20151636783286E-6;
-2,26993144962809E-5;
-4,34774791951721E-5;
-5,00352698444355E-5;
-4,14297594196104E-5;
-2,48991867446882E-5;
-1,0235843267953E-5;
-2,96460890494272E-6;
-1,50441073820044E-6;
-9,48407680622705E-8;
5,41220675420017E-6;
1,39266267806631E-5;
2,05822218191931E-5;
2,17089808668021E-5;
1,86764015461534E-5;
1,6953599713567E-5;
2,09493202355606E-5;
2,9065199196705E-5;
3,35599136635181E-5;
2,59876523636865E-5;
4,23395138608901E-6;
-2,45109941996799E-5;
-4,75863163939642E-5;
-5,49592085754792E-5;
-4,56224535014227E-5;
-2,75648475546923E-5;
-1,15435582237116E-5;
-3,60210049568645E-6;
-1,99931444935815E-6;
-4,46145502071087E-7;
5,56722264979445E-6;
1,48453210804122E-5;
2,21054091974605E-5;
2,33799519154703E-5;
2,01593491572541E-5;
1,83480835909043E-5;
2,26872732051357E-5;
3,14461317371758E-5;
3,63103965728961E-5;
2,82404688725466E-5;
4,99790656774843E-6;
-2,57139389983906E-5;
-5,0384194603988E-5;
-5,83405141924582E-5;
-4,85339387432097E-5;
-2,94641897238651E-5;
-1,2540111294241E-5;
-4,15265805637256E-6;
-2,45276991535197E-6;
-8,00208424307407E-7;
5,55264766186843E-6;
1,53397758143847E-5;
2,30060582694764E-5;
2,43916898698734E-5;
2,10661120786978E-5;
1,92127924689491E-5;
2,37830338730351E-5;
3,29607187144475E-5;
3,80718849385372E-5;
2,97091717016703E-5;
5,56076711524678E-6;
-2,63531477193714E-5;
-5,20053448632116E-5;
-6,03407294358233E-5;
-5,0288229879343E-5;
-3,06506146438623E-5;
-1,32168242352208E-5;
-4,57686227290572E-6;
-2,81895056852525E-6;
-1,10526739697794E-6;
5,44244487731517E-6;
0,00934895179865051;
0,0226531476240954;
0,0163976187196292;
0,00945461721291833;
0,0121890558858463;
0,0070505340967658;
0,00566858534909407;
0,0046217285960992;
0,000871037327781198;
0,00103837506941661;
-0,00121691638955248;
-0,00204453739268955;
-0,00286826052096223;
-0,00460469849373696;
-0,00491851803488977;
-0,00586948809895812;
-0,00594607941092087;
-0,0061855697603636;
-0,00699491796097721;
-0,0079154279675964;
-0,00933343985562902;
-0,0102194564383718;
-0,0104935562561912;
-0,010086917971959;
-0,00918788973423279;
-0,00840577317070955;
-0,00779645377799153;
-0,00741819577894315;
-0,00701723176610785;
-0,00641239364259764;
-0,00570161935695012;
-0,00501077023254697;
-0,00451395745753838;
-0,0041416453165842;
-0,00369501579170171;
-0,00304026604350606;
-0,002233262766018;
-0,00157608657973932;
-0,00136259767703938;
-0,0016601878908996;
-0,00221056009064584;
-0,00256395567789973;
-0,00238212551830736;
-0,00163581666498513;
-0,000605145290760796;
0,000340979433567206;
0,000997342763167701;
0,00141480825028939;
0,00179576499354199;
0,00228492671975529;
0,00284820330716303;
0,00332694793037288;
0,00360516009361671;
0,00373439965285081;
0,00389400584694797;
0,00421984568936212;
0,00464899436233912;
0,00492576000344235;
0,00478373395578112;
0,00416684573388763;
0,00331309200277172;
0,00262369423487996;
0,00240806348060727;
0,00269218991149848;
0,00322831732604592;
0,00368917439015565;
0,00389171134496126;
0,00388404611126925;
0,00384734766094447;
0,00391272331223978;
0,00405180959379166;
0,00412496104813126;
0,00403114593890787;
0,00381734332485572;
0,00364401857454326;
0,00363218160582126;
0,00372576919180864;
0,00369782728991393;
0,00331217818607665;
0,00252003693180439;
0,0015336453904973;
0,00070972551115001;
0,000323063221655695;
0,000396614859968993;
0,000710530960917538;
0,000974421759095163;
0,00102560784258987;
0,000906038398331267;
0,000775427543676475;
0,00074944470869121;
0,000803098722894625;
0,000813321314717238;
0,000691103079269774;
0,00047767822322691;
0,00031381280327482;
0,000304985981523931;
0,000400496623130796;
0,000399420423685816;
9,32727980156667E-5;
-0,000561031616251061;
-0,0013768305774909;
-0,00204067107133056;
-0,00231154765634915;
-0,00217005520726421;
-0,00181016383091111;
-0,00148775767855912;
-0,001346620257328;
-0,00135102619584163;
-0,00136189689599993;
-0,00127847361858486;
-0,0104562377623052;
-0,0236322144648615;
-0,0173680443669273;
-0,0104986108652814;
-0,013260282507864;
-0,00800661728211118;
-0,00641441211321306;
-0,00524714867038737;
-0,00165761499111142;
-0,00230751932160201;
-0,000685257219091312;
-0,00035390487521356;
0,00033107425423986;
0,00230385559731583;
0,00305103305985554;
0,00439751295312161;
0,00469960418997136;
0,00502692080491189;
0,00591353642928656;
0,00699292383718196;
0,00863128016470968;
0,00970072202231662;
0,0100502212277048;
0,00964369052307427;
0,00878121471637009;
0,00815516252258242;
0,00777969419467859;
0,00755185743915569;
0,0070512945265962;
0,00606264616899746;
0,0048328781045062;
0,00373764188273844;
0,00314283604857914;
0,00299419933215595;
0,00293848170066589;
0,0026382498700558;
0,00203471582774269;
0,00145772522379922;
0,0013109949231236;
0,00174178285371892;
0,00247491628170026;
0,00297642801875152;
0,00284740428837993;
0,0020872071062124;
0,00107222124012257;
0,000242561817717;
-0,00023285943078778;
-0,000543750356014214;
-0,00103550725294993;
-0,00188168397513457;
-0,00291955681322266;
-0,00377554002292613;
-0,00416879129632582;
-0,00413766209923589;
-0,00399384683734335;
-0,00404771771342945;
-0,0043346723529642;
-0,00457547757285765;
-0,00440991135031691;
-0,00371350949369117;
-0,00273819485739176;
-0,00195635250900144;
-0,0017284913750446;
-0,00205590970862859;
-0,00260899251765913;
-0,00300029807041407;
-0,00307810031569834;
-0,00300871859337204;
-0,00309462010352299;
-0,00349096255691966;
-0,00405979169170638;
-0,0044789180548106;
-0,00450752197168641;
-0,00418141045280723;
-0,00377312823926572;
-0,0035514082748628;
-0,0035435411282101;
-0,00350303393764659;
-0,00311480851733565;
-0,00227240420771339;
-0,00119944276612765;
-0,000311983238206559;
7,27169587503968E-5;
-4,73664155347419E-5;
-0,000383887487058334;
-0,000596507379298457;
-0,00054935959748782;
-0,000383712690186224;
-0,000360756595030343;
-0,000615954474958521;
-0,00103234620671524;
-0,00133416856680788;
-0,00131570470183157;
-0,00100896441140313;
-0,000648276268327028;
-0,000462359289913341;
-0,000470198668264321;
-0,000455028197604554;
-0,000143146718814355;
0,000556346296982772;
0,00144765551977634;
0,00216870492548811;
0,00244381407384282;
0,00227102575407492;
0,00190060044384242;
0,00162906710701299;
0,00157753858812365;
0,00162819564188575;
0,0015585322677348;
0,00125183731402392;
0,000806041220555858;
0,000454239911864953;
0,000369924275780329;
0,00052480291333461;
0,000719958091810715;
0,000763453497278301;
0,000643469110676028;
0,000548653108254595;
0,000713977214974186;
0,00121583477741252;
0,001884350577182;
0,00240763249829689;
0,00254851474221836;
0,00230481942420046;
0,00189098069680624;
0,00156222397548332;
0,0014252052947635;
0,00138307012717306;
0,00124853003705396;
0,000921863380303101;
0,000483247919127834;
0,000126277170701928;
-5,46366871295283E-6;
6,2831559380652E-5;
0,000164337948149794;
0,000140259935688774;
-1,54755853549507E-5;
-0,000140901705809629;
-3,72729477030619E-5;
0,00035815472540661;
0,000899265743731146;
0,00132029786611976;
0,00141937250202464;
0,00119378462071071;
0,000824516035216349;
0,000528180659339395;
0,000397462071139127;
0,00035414465921378;
0,000242833659391516;
-2,08092903973211E-5;
-0,000372893600488928;
-0,000655946111163234;
-0,000753731152259739;
-0,0006887088971816;
-0,000598633632307439;
-0,000612451124221851;
-0,000731506054379763;
-0,000818660628889966;
-0,000708503401978535;
-0,000350742802048172;
0,000130402991620871;
0,000511539169795908;
0,000623167661218485;
0,000462116801099856;
0,000178697519167519;
-4,59666853255945E-5;
-0,000132249902373479;
-0,000141639729241952;
-0,000200577124035851;
-0,000379283323530475;
-0,000628396716107469;
-0,000822922083181362;
-0,000871156932030486;
-0,000792898594104284;
-0,000699515008966006;
-0,000693030302280804;
-0,000770732297735538;
-0,000818164133766874;
-0,000700118400387698;
-0,000377358767100893;
4,61232144944449E-5;
0,000385733148381148;
0,000501637484794725;
0,000390429696738432;
0,00017468333745305;
3,30543005639642E-6;
-5,60462898273801E-5;
-4,98499726695985E-5;
-7,83604414198595E-5;
-0,000198844774504291;
-0,000374698937076846;
-0,000509809659094247;
-0,000534230117203447;
-0,000465138482818733;
-0,000390100703231147;
-0,00038702477027606;
-0,000449737051373776;
-0,000484320146832245;
-0,000382708815519646;
-0,000115396892396213;
0,000232147414513676;
0,000510564574723668;
0,000606958658033227;
0,000517854930901202;
0,000340908382658017;
0,000195970729714377;
0,000139764688849576;
0,000139108769732251;
0,000117177691381465;
2,84330527669344E-5;
-0,000101679756443129;
-0,00020257393131914;
-0,000223494676569347;
-0,000179154097551205;
-0,000135903843587753;
-0,000150314028406882;
-0,000213380061712072;
-0,000249717795935781;
-0,000175533468384247;
3,01132598006093E-5;
0,0002984988916536;
0,000511921296482429;
0,000581668793350955;
0,000504259388680018;
0,000355070723324273;
0,000227887322796407;
0,000169442588684788;
0,000158150283568031;
0,000137895711595108;
7,36040328553746E-5;
-1,90052546232518E-5;
-9,17586614577866E-5;
-0,000110732459307271;
-8,83962967368167E-5;
-7,24168219151413E-5;
-0,000100713206171575;
-0,000162068001315808;
-0,000197729563276077;
-0,000145465735331442;
8,15520053266624E-6;
0,000209385670976994;
0,000368694976024542;
0,000418871882125064;
0,000356452594618052;
0,000237047606750824;
0,000131231854501781;
7,66671345929443E-5;
6,17550056117478E-5;
4,8503519636785E-5;
1,10819520604888E-5;
-4,3182433633082E-5;
-8,56034277519224E-5;
-9,68706163370594E-5;
-8,74305201261113E-5;
-8,86494081324105E-5;
-0,000122309057399205;
-0,000175521083620231;
-0,000204325681918393;
-0,00016546186577622;
-5,20014333855257E-5;
9,5600119777406E-5;
0,000212673564635238;
0,000250968202615725;
0,000207078594426069;
0,000119255029680011;
3,76106421264836E-5;
-8,34468641496445E-6;
-2,16908277255649E-5;
-2,4703701759507E-5;
-3,51020111964567E-5;
-5,26901623128214E-5;
-6,55151837783137E-5;
-6,67894380026368E-5;
-6,51264197408154E-5;
-7,78009962147078E-5;
-0,00011277198013116;
-0,000155935013401696;
-0,000176345167977002;
-0,000147248384917236;
-6,7263763846052E-5;
3,48640368636186E-5;
0,000116217535134889;
0,000145126772105641;
0,000118297603284552;
5,89052681829946E-5;
-7,84810313716826E-7;
-3,85100810994427E-5;
-5,01690483928018E-5;
-4,4548351842947E-5;
-3,23050864802669E-5;
-1,92031864433998E-5;
-7,46269054055547E-6;
-8,75805631230219E-7;
-6,39768959618961E-6;
-2,9254527802315E-5;
-6,57100327408197E-5;
-0,000100833776013296;
-0,000115012582136665;
-9,56915364051698E-5;
-4,61510864567825E-5;
1,50865637051091E-5;
6,39422151421239E-5;
8,30986238272154E-5;
6,9418937868515E-5;
3,31366997920451E-5;
-8,88262096034372E-6;
-4,07613933340258E-5;
-5,24403850485085E-5;
-4,12770179649273E-5;
-1,18496491528159E-5;
2,51837449010158E-5;
5,57758571041237E-5;
6,73311786070047E-5;
5,43793565265749E-5;
2,18550158818323E-5;
-1,67648495263038E-5;
-4,60665498802589E-5;
-5,62007994178521E-5;
-4,66800627043052E-5;
-2,46428380337365E-5;
2,11545396815128E-7;
1,99251243329418E-5;
2,94550916924663E-5;
2,58525044241421E-5;
8,37640713918948E-6;
-1,92420201345054E-5;
-4,67021231709618E-5;
-5,9103869820225E-5;
-4,42717447019405E-5;
-1,6224485703116E-6;
5,42484497530145E-5;
9,95949651730525E-5;
0,00011462686251221;
9,5186150541086E-5;
5,46353926180401E-5;
1,44098977100498E-5;
-9,89277117106923E-6;
-1,67389609738687E-5;
-1,57547938854041E-5;
-1,72136701225996E-5;
-2,32960347709872E-5;
-2,83506301666771E-5;
-2,7067139881087E-5;
-2,21874664355947E-5;
-2,36251434851823E-5;
-3,8700124870437E-5;
-6,19350312605924E-5;
-7,45972271111828E-5;
-5,67065492710477E-5;
-3,36317646983873E-6;
6,77548585867532E-5;
0,000125122953939404;
0,000143205092415761;
0,000118990965358973;
7,26974425281253E-5;
3,21099322764921E-5;
1,27555717280756E-5;
9,18410091959481E-6;
3,43678260095995E-6;
-1,72444389120766E-5;
-4,872162517719E-5;
-7,4033919944934E-5;
-7,9275741628951E-5;
-6,69685258179167E-5;
-5,4556741117394E-5;
-5,85070807089366E-5;
-7,74639454548563E-5;
-8,97606856406552E-5;
-6,91713333662984E-5;
-7,24861973462463E-6;
7,60083859257996E-5;
0,000143017607517489;
0,000163794905694551;
0,000136325003732647;
8,62644395555936E-5;
4,63122782763043E-5;
3,17148870658839E-5;
3,125538223738E-5;
2,02554378924231E-5;
-1,59456819724112E-5;
-6,79862289579123E-5;
-0,000109682632968135;
-0,000120128240541614;
-0,000101614363086179;
-7,76315825070423E-5;
-7,20651232983729E-5;
-8,70326020106432E-5;
-9,87264341635708E-5;
-7,60687809175624E-5;
-7,75883357676731E-6;
8,45555407112919E-5;
0,000158764640089126;
0,000181588508090469;
0,00015186648880843;
9,9433482325626E-5;
6,06299667953142E-5;
5,02505483892194E-5;
5,24150678444496E-5;
3,71740874881658E-5;
-1,15200402547272E-5;
-8,00725520814644E-5;
-0,000134956671629812;
-0,000149699849685125;
-0,000126358009922344;
-9,31369065506041E-5;
-7,97856678449694E-5;
-9,13013417611355E-5;
-0,000102429841885975;
-7,84783403065476E-5;
-5,91466325702475E-6;
9,25510975564268E-5;
0,000171628000232202;
0,000195753046915847;
0,000164490863327186;
0,000110738810570822;
7,33611485492946E-5;
6,65639159945329E-5;
7,07945141285421E-5;
