-6,55502226911142E-6;
-9,87770888914449E-6;
-1,04992116043459E-5;
-8,1395267936576E-6;
-4,19747386136044E-6;
-7,39062358148241E-7;
9,80447187971909E-7;
1,2886059336591E-6;
1,55601253708386E-6;
2,83765505668877E-6;
4,89122105961106E-6;
6,4453150839422E-6;
6,48206718455552E-6;
5,35230769303389E-6;
4,61562056664311E-6;
5,59548604349608E-6;
7,85088685217114E-6;
9,00915126176529E-6;
6,37163101092926E-6;
-8,14882745694185E-7;
-1,02517334951804E-5;
-1,77116582935409E-5;
-1,9730460835727E-5;
-1,58990745979768E-5;
-9,00842159679109E-6;
-2,93574670328263E-6;
7,81582086652118E-8;
6,6151462479742E-7;
1,20017081576773E-6;
3,45393001198076E-6;
6,98052421867478E-6;
9,69116201994494E-6;
9,97475041418486E-6;
8,41891254717236E-6;
7,45984649479951E-6;
9,10175916637977E-6;
1,26391564017927E-5;
1,45159820024717E-5;
1,07865290462437E-5;
4,22407839743745E-7;
-1,31981228631025E-5;
-2,40242786239834E-5;
-2,71959239583291E-5;
-2,21997300144811E-5;
-1,29500229349877E-5;
-4,78377938866663E-6;
-7,34963182427869E-7;
6,6462344457108E-8;
8,21383140420111E-7;
3,85436413121636E-6;
8,56245952265328E-6;
1,22027706290926E-5;
1,26903999111259E-5;
1,08021658091974E-5;
9,67279981367468E-6;
1,1847808753155E-5;
1,64109344850418E-5;
1,88666441153564E-5;
1,42811113159701E-5;
1,4087554610105E-6;
-1,55184409840834E-5;
-2,90105383681655E-5;
-3,31076085515719E-5;
-2,72144132819663E-5;
-1,61275671719318E-5;
-6,32844793793435E-6;
-1,47168800466447E-6;
-4,9818374827897E-7;
4,286007655783E-7;
4,07257047222547E-6;
9,70528995409254E-6;
1,40758958749765E-5;
1,47325195484886E-5;
1,25986122788503E-5;
1,13482530930113E-5;
1,39436928305328E-5;
1,93059095690441E-5;
2,22176600210757E-5;
1,69881025059551E-5;
2,20621462777039E-6;
-1,72436803002965E-5;
-3,2775055891949E-5;
-3,75920687412868E-5;
-3,10375431927031E-5;
-1,85758393722656E-5;
-7,55223050468761E-6;
-2,08859905152233E-6;
-9,83627796579195E-7;
7,55272445504466E-8;
4,18076961885767E-6;
1,0509439182696E-5;
1,54324034210044E-5;
1,62255940526805E-5;
1,39213721302785E-5;
1,25921280819354E-5;
1,55065475618431E-5;
2,14653582888796E-5;
2,4722374176508E-5;
1,90342097839642E-5;
2,87019993784429E-6;
-1,84109421979686E-5;
-3,54287357742834E-5;
-4,07844602810354E-5;
-3,37767134940098E-5;
-2,0348412869075E-5;
-8,46142569567191E-6;
-2,56967008001687E-6;
-1,37084301503177E-6;
-2,16038439935059E-7;
4,21669275787981E-6;
1,10379882015916E-5;
1,63544961209452E-5;
1,72532520404909E-5;
1,48424064558572E-5;
1,34688405168125E-5;
1,66108901255561E-5;
2,29863485833803E-5;
2,64891077678148E-5;
2,05024701495245E-5;
3,41629050163257E-6;
-1,90920951854174E-5;
-3,71130719819425E-5;
-4,28489257442834E-5;
-3,55695976985658E-5;
-2,15313507049309E-5;
-9,09672995252349E-6;
-2,93365936649434E-6;
-1,67478293795552E-6;
-4,57380752706107E-7;
4,18520654212119E-6;
1,13209111123574E-5;
1,68914561340671E-5;
1,78674675971871E-5;
1,5404097327655E-5;
1,40150992949825E-5;
1,73043749775739E-5;
2,39391966229313E-5;
2,76002509550929E-5;
2,1453021651391E-5;
3,84274567591454E-6;
-1,93695516599668E-5;
-3,79744752660208E-5;
-4,39518486915724E-5;
-3,65565270681958E-5;
-2,22153727827439E-5;
-9,50509294365015E-6;
-3,20569522930808E-6;
-1,9157428338254E-6;
-6,64108082742276E-7;
4,08703312383592E-6;
1,13835864858992E-5;
1,70878597059328E-5;
1,81164643625478E-5;
1,56467954894992E-5;
1,42669784645724E-5;
1,76342546304596E-5;
2,43932067060295E-5;
2,81372261520549E-5;
2,194736925928E-5;
4,15418309820029E-6;
-1,93131677711737E-5;
-3,81418526313795E-5;
-4,42403177791907E-5;
-3,68600358815864E-5;
-2,2476603130481E-5;
-9,72167809685295E-6;
-3,40037565162523E-6;
-2,10355832740241E-6;
-8,41477505751195E-7;
3,93224948426418E-6;
1,12591122486537E-5;
1,69947355218878E-5;
1,80547528172764E-5;
1,56177899691432E-5;
1,42678381561572E-5;
1,76542085078356E-5;
2,44224004446544E-5;
2,81851947726335E-5;
2,20521707052741E-5;
4,36454805698812E-6;
-1,89780079859032E-5;
-3,77251012642684E-5;
-4,38414094638572E-5;
-3,65849853646828E-5;
-2,2377530994014E-5;
-9,77161606552505E-6;
-3,52424903648272E-6;
-2,24073950714143E-6;
-9,88132189524216E-7;
3,73597318198701E-6;
1,09834361073864E-5;
1,66641833557359E-5;
1,77373159942115E-5;
1,53651099398269E-5;
1,40617686603035E-5;
1,741748012469E-5;
2,40983734422659E-5;
2,78256580464049E-5;
2,18316590207457E-5;
4,4894499652241E-6;
-1,84120515795535E-5;
-3,68228432785612E-5;
-4,28699224519793E-5;
-3,5826303029849E-5;
-2,19747550037112E-5;
-9,67770681449391E-6;
-3,58344507346031E-6;
-2,33000707950336E-6;
-1,10351145359192E-6;
3,51109293025668E-6;
1,05882489232449E-5;
1,61424574608455E-5;
1,72128905003717E-5;
1,49310284878402E-5;
1,36873372418625E-5;
1,69708547004815E-5;
2,34845244842838E-5;
2,71309656573533E-5;
2,13424211635623E-5;
4,54118958393623E-6;
-1,76608987722154E-5;
-3,55268329691845E-5;
-4,14324931350689E-5;
-3,4672770998574E-5;
-2,13224119527679E-5;
-9,46352330987948E-6;
-3,5864574564308E-6;
-2,37676160906075E-6;
-1,19003404365821E-6;
3,26638683442681E-6;
1,00994043681933E-5;
1,54686620345954E-5;
1,65229236085572E-5;
1,43512531599175E-5;
1,31770111043468E-5;
1,63543401419712E-5;
2,26359849989742E-5;
2,61644690250268E-5;
2,06337291180426E-5;
4,52921490786509E-6;
-1,67672314128184E-5;
-3,39213384082082E-5;
-3,96268165791815E-5;
-3,32060302458245E-5;
-2,04709633219811E-5;
-9,15197925088716E-6;
-3,54256010962719E-6;
-2,38740594737063E-6;
-1,25130857792278E-6;
3,00841774764002E-6;
9,53892045156459E-6;
1,46768562320785E-5;
1,57037262031343E-5;
1,36570995632192E-5;
1,25593469952463E-5;
1,56033899511134E-5;
2,16019034987971E-5;
2,4982820833854E-5;
1,97497769669669E-5;
4,46221206525654E-6;
-1,5768919571835E-5;
-3,20813979094685E-5;
-3,75399710280182E-5;
-3,14988746289939E-5;
-1,94653998085006E-5;
-8,76348708346847E-6;
-3,45996088874626E-6;
-2,36753291992726E-6;
-1,29039088088586E-6;
2,74325068946682E-6;
8,92669140218013E-6;
1,37977245069237E-5;
1,47880752129367E-5;
1,28769843335827E-5;
1,18603796353671E-5;
1,47502329461078E-5;
2,04267378316589E-5;
2,36372169865708E-5;
1,87307759475388E-5;
4,34894050710134E-6;
-1,46984849360063E-5;
-3,00725325345054E-5;
-3,52482465277041E-5;
-2,96150715189716E-5;
-1,83449819122245E-5;
-8,31562686102037E-6;
-3,34549021882787E-6;
-2,32167431226648E-6;
-1,30957486081983E-6;
2,47663453817809E-6;
8,28067512313858E-6;
1,28587617906269E-5;
1,3805336853534E-5;
1,20364634385617E-5;
1,11035944877164E-5;
1,38238296424305E-5;
1,91502357670028E-5;
2,21733680224522E-5;
1,76128089788219E-5;
4,19784671830488E-6;
0,00931985026709707;
0,0226017781610988;
0,0163399191247953;
0,00940548589988164;
0,0121522477857454;
0,0070183435586293;
0,00563161198141399;
0,00458045620227702;
0,000839189145682708;
0,00103460588210868;
-0,00118282301129904;
-0,00198006872769924;
-0,00279435580266354;
-0,00454252346244299;
-0,00487701547257172;
-0,00584305119538904;
-0,00592341011170677;
-0,00616185705652674;
-0,00697714914054089;
-0,00791668699480231;
-0,00936133677315765;
-0,0102686568226351;
-0,0105488068383821;
-0,0101340560988393;
-0,00922355714152911;
-0,00843759839797242;
-0,00783347868158741;
-0,00745963943371903;
-0,00704934997694874;
-0,00641671930673337;
-0,00566850638185925;
-0,00494759366358792;
-0,00444134409506898;
-0,00408050719007399;
-0,00365433013176459;
-0,00301471841540242;
-0,00221180511266791;
-0,00155378368158604;
-0,00134587418033822;
-0,00166143381612968;
-0,00223703939011791;
-0,00261062597731752;
-0,00243452812388644;
-0,00168060961743222;
-0,000639350471921035;
0,000309908516305938;
0,000960794781779021;
0,00137380124761619;
0,00176386266222917;
0,00228017429398488;
0,00287999571551569;
0,00338811398919463;
0,00367563462451775;
0,0037937852597251;
0,00393342474861671;
0,00424428891757451;
0,00466913970921971;
0,00494657469058614;
0,00479935663901866;
0,00416564532249416;
0,0032881976213657;
0,00257982925066529;
0,00235881147211879;
0,00265001287657182;
0,00319583246401485;
0,00365918259423546;
0,00385608583325545;
0,00384398838208903;
0,0038160747878762;
0,003907668476156;
0,00408202468482181;
0,00418355217482454;
0,00409880984638566;
0,00387440825429829;
0,00368181698657087;
0,003655360005499;
0,00374453989218428;
0,00371711191002948;
0,00332667116728094;
0,00251890969388524;
0,00151045400896313;
0,00066885660757046;
0,000277170612520772;
0,00035724369996868;
0,00067995878730958;
0,000945766590771407;
0,000991265682387363;
0,000867346652420801;
0,000745122559548808;
0,000744197060551521;
0,000831545004094302;
0,000868902097114478;
0,000755433541159348;
0,000531978417851303;
0,000349715305813828;
0,000326780247152938;
0,000417856631378255;
0,000417157955830676;
0,000106623829792578;
-0,000562068122572363;
-0,0107316832405815;
-0,0247081615199818;
-0,0187266956894235;
-0,0116396015730732;
-0,01400808470369;
-0,00854104995494455;
-0,00701421492994264;
-0,00597073481414675;
-0,00223146632133307;
-0,0023162133306431;
9,41769498271558E-5;
0,00104171547098434;
0,00187243477537027;
0,00353936714458952;
0,00383023410244143;
0,00489577714539833;
0,00517755779140048;
0,00553424413485458;
0,00618867293898394;
0,00664464013647974;
0,00745357441007431;
0,00786242449966891;
0,00800355722238197;
0,00782522013490212;
0,00734496467282581;
0,00694645306566879;
0,00655782028443076;
0,00626684781691607;
0,00594038587498252;
0,0054855302047543;
0,00498239573880751;
0,00446501261791891;
0,00404140788840721;
0,00367379916049099;
0,00326892913410466;
0,00277024133614325;
0,002192011031129;
0,00168189035214569;
0,00137540559247824;
0,00130838304210506;
0,0013653316732922;
0,00133475538024607;
0,00106115864729095;
0,000530112843741612;
-0,000124862053881474;
-0,000728681330235722;
-0,00118625106490464;
-0,00152390416140782;
-0,00184124411763085;
-0,00220724217047255;
-0,00260200340282123;
-0,00294383890686033;
-0,0031718668731577;
-0,00331002396976615;
-0,00344804150892789;
-0,00365694673933938;
-0,0039101710626479;
-0,0040838129776164;
-0,00404577732028349;
-0,0037660026802966;
-0,00336028752752476;
-0,00302690360598264;
-0,00291979185513276;
-0,00305214300526896;
-0,00330036626075863;
-0,00350154363741631;
-0,00356637625976483;
-0,00352297554743705;
-0,00346614651525024;
-0,00346285056108653;
-0,00349570769188717;
-0,0034885077789803;
-0,00338541212703497;
-0,00320969335833806;
-0,00304692755448869;
-0,00296468518926819;
-0,00293843628375017;
-0,00285225377115517;
-0,00258232329661557;
-0,00210094686651576;
-0,0015172957735175;
-0,00101775022494098;
-0,000746828636163822;
-0,000716685624640219;
-0,000811184671003966;
-0,000877364627854331;
-0,000831362322754627;
-0,00069932284254576;
-0,000569718416898007;
-0,000504833831544665;
-0,000487938707529453;
-0,000447285461567411;
-0,000330215415037301;
-0,000157995534409723;
-1,00221328097409E-5;
5,12355938241655E-5;
4,93279800701011E-5;
9,30314560597544E-5;
0,000298363085106806;
0,000691647176038336;
0,00117169443335285;
0,00156554250356678;
0,00173938491082234;
0,00168270667810877;
0,00150430763057317;
0,00134709682016551;
0,00128961542763189;
0,00130813237028753;
0,00132106250037081;
0,00127119629949684;
0,00117466908894927;
0,00109859709051802;
0,00109230984909211;
0,00113656628487772;
0,00115828544045304;
0,00110011364916847;
0,000984341950415054;
0,000912054496592514;
0,000990898123953719;
0,00124547147997246;
0,00158249865807207;
0,00184248183715611;
0,00190221237098985;
0,00175236809844172;
0,00149368476076992;
0,0012582290891591;
0,00111858026788289;
0,00105298718635637;
0,00098641105958283;
0,00086630669902975;
0,00070765809649403;
0,000572310977929798;
0,000505670811340907;
0,00049004531825265;
0,000458269230547967;
0,00035767167401765;
0,000208741935076612;
0,000104246946468208;
0,00014286582210628;
0,000347002998283308;
0,000630967791766775;
0,000848454808809614;
0,000886527041317118;
0,000736623301990259;
0,000490915755888;
0,000270148866722424;
0,000140544771029486;
8,20238498971304E-5;
2,58250842604911E-5;
-7,62066739067992E-5;
-0,000210526676738634;
-0,000320835982386998;
-0,000365892279380518;
-0,000362040341285245;
-0,000370712514714872;
-0,000440074274124718;
-0,000551600577126305;
-0,000620968331072491;
-0,000558551568531481;
-0,000344207818923252;
-5,61271722375853E-5;
0,000172464829698335;
0,000238791987063478;
0,000134994988213998;
-5,5298109137047E-5;
-0,000222590817951914;
-0,000306946966347847;
-0,000326750179025487;
-0,000344495874328696;
-0,000403943173444561;
-0,000492913397052424;
-0,000560519049301902;
-0,000569542317634274;
-0,000534898107592188;
-0,000512259862089305;
-0,000545248452932573;
-0,000617167874583771;
-0,000651890994167143;
-0,0005685654786202;
-0,000349126328203502;
-6,42449095863749E-5;
0,000165836509640424;
0,000248438809805238;
0,000176509303258018;
2,54236389036025E-5;
-0,000106206028089183;
-0,000164453129218391;
-0,000165895501949285;
-0,000166761477070405;
-0,000206381710252439;
-0,000273782991483663;
-0,000323229712019136;
-0,000321297617310152;
-0,000281377508134883;
-0,000253409523067453;
-0,000276476563021325;
-0,00033555541283882;
-0,000362382054580186;
-0,000284519692881422;
-8,58078330925184E-5;
0,00950392227829924;
0,0230065450751501;
0,0168230973341476;
0,00981801079547781;
0,0124173128963301;
0,00715368537530015;
0,00570670073009592;
0,00464895961207429;
0,000900999446158446;
0,00105201689408111;
-0,00123696755375341;
-0,00208911146518175;
-0,0029096045265911;
-0,00462802644814303;
-0,00494450982568719;
-0,00594158666350742;
-0,00608764446228955;
-0,00636118871967428;
-0,00711172544617585;
-0,00787113362410602;
-0,0090805781281895;
-0,00980019526095424;
-0,0100191436548204;
-0,00967565009040006;
-0,00890460752728385;
-0,00824230629921904;
-0,00770010563767848;
-0,00734045592816805;
-0,00694429625222693;
-0,00635903039416256;
-0,00568203168644658;
-0,00501735186903798;
-0,00452398448146375;
-0,00414395063691387;
-0,00370866791565264;
-0,00310300561628986;
-0,00236434939657248;
-0,00174323277140194;
-0,00148374225987886;
-0,00164556480393327;
-0,00201849366733938;
-0,00223091330509383;
-0,00200476134611774;
-0,00131711999039931;
-0,000401869560500964;
0,000435573169433879;
0,00102923083269686;
0,00142726275748601;
0,00180270565577003;
0,00227551500509943;
0,00281119719907261;
0,00326861038960055;
0,00354372577198586;
0,00367786800408287;
0,00382493117666217;
0,00410578098648708;
0,0044743434499888;
0,00471966074944201;
0,00461793265569076;
0,00411922644218136;
0,00341976581569308;
0,00285336226004882;
0,00267753921482572;
0,00291262483451412;
0,00335037302400608;
0,00371810688393445;
0,00386701024293249;
0,00384376949122105;
0,00380510212359959;
0,00386090299864163;
0,00398159644353107;
0,00404118165735076;
0,00394778862507766;
0,00373941282152265;
0,00355545071644323;
0,00350520018229425;
0,00354784156182458;
0,00349480741882777;
0,00314591828690557;
0,00245713115468705;
0,00160481227335748;
0,000888237754550493;
0,00053800787569078;
0,000572066739064955;
0,000803878494216691;
0,000989415844350869;
0,000995556489509306;
0,00086391253231124;
0,00073421184991894;
0,000704195617621932;
0,000747009973013854;
0,000749810888464862;
0,000630273799600354;
0,000421834562235021;
0,000248166149626548;
0,000205966786009032;
0,000258221928823704;
0,000236534677444118;
-3,76257841574115E-5;
-0,000603830624094694;
-0,0106392629610464;
-0,0245081633095553;
-0,0184904678297676;
-0,0114417997944422;
-0,0138870629199493;
-0,00848787675613735;
-0,00699419712289275;
-0,00595707622348057;
-0,00222404126166291;
-0,00233345107906885;
3,9099666944856E-5;
0,000957189308484459;
0,00178253615448602;
0,00346189593901712;
0,00375971050192178;
0,00480860142706498;
0,00505716440036205;
0,00539565658427793;
0,00608027113466658;
0,00662216488456802;
0,00754374018296548;
0,00804284144682414;
0,00821419425889211;
0,00800328667158302;
0,00745819134473133;
0,00700227795865175;
0,00658529006486564;
0,00628838341706748;
0,00595607044661386;
0,00547992898619448;
0,00494448117610859;
0,00440178687199638;
0,00397296700653831;
0,00361499571739878;
0,00321520917211404;
0,00270196920497211;
0,00209542071723321;
0,00156949082810852;
0,00128741050023039;
0,00129109478296475;
0,00144095733962872;
0,00148480404793519;
0,00123598575807005;
0,000677810838705608;
-3,0962052415013E-5;
-0,000682460782376283;
-0,00116377443554032;
-0,00150670407813481;
-0,00182924340900743;
-0,00221311717332155;
-0,00263479696323022;
-0,00299778869917906;
-0,00323047817650236;
-0,00336110732959078;
-0,00349529339128575;
-0,00371638600692954;
-0,00399300875800504;
-0,00417981581725762;
-0,0041221415212525;
-0,00378499115344188;
-0,00330378450109232;
-0,00290986758073384;
-0,00278245492727018;
-0,00293655298635766;
-0,00322812047505039;
-0,00346772039181956;
-0,00355167015117144;
-0,00351250286731937;
-0,0034598446179176;
-0,00347091283986727;
-0,00352539523179725;
-0,00353519090512511;
-0,00343586189943953;
-0,00325413947578623;
-0,00308830948004852;
-0,00301577715940642;
-0,00300816342875907;
-0,0029324513862723;
-0,00264688142002967;
-0,00211986193162776;
-0,0014761573395013;
-0,000928361952334368;
-0,000640979326297271;
-0,000627578023056115;
-0,00075587415370585;
-0,000852018082730083;
-0,000820845103973666;
-0,00069198223710861;
-0,000565520565414866;
-0,000511761470853342;
-0,000511671066301313;
-0,000484222260382962;
-0,000370066973019451;
-0,000193171882711569;
-4,27999664617709E-5;
1,09702954736865E-5;
-5,31901054602121E-6;
3,03064677249307E-5;
0,000247677501636778;
0,00067608485069218;
0,00120234350030066;
0,00163339958727647;
0,00182017923707411;
0,00175111238646207;
0,00154731224537345;
0,0013675618154075;
0,00129896048465213;
0,00131513235342557;
0,00132572243840871;
0,00126749599205674;
0,0011583329940881;
0,00107230960729343;
0,00106374947084901;
0,00111138630433254;
0,00113479565812488;
0,00107098847656499;
0,000944487421562819;
0,000866125995552132;
0,000953705874135229;
0,00123397218721014;
0,0016048376781566;
0,00189212938480805;
0,001961542929996;
0,00180301875735514;
0,0015262200185659;
0,00127466069309586;
0,00112705770402993;
0,00105975369741907;
0,00099145174113911;
0,000865335896358362;
0,00069764218509757;
0,000555133962021183;
0,000486719076812578;
0,000473273617618005;
0,000442507215633184;
0,000337847913050975;
0,00018134845346699;
7,24970520547001E-5;
0,00011691679459565;
0,00033843959453798;
0,000645355419182195;
0,000881430167039795;
0,000926285046732507;
0,000770899902647774;
0,000513412081690498;
0,000282142354301328;
0,000147334978315835;
8,76490568959399E-5;
3,02580401377672E-5;
-7,57334643773472E-5;
-0,000215959034408177;
-0,000330983073933158;
-0,000377360903398609;
-0,000372352016174035;
-0,000380582921760906;
-0,000452611682492007;
-0,000568931497169478;
-0,000641130457923834;
-0,000575428273984453;
-0,000350879369106993;
-4,92702233240184E-5;
0,000190361807226077;
0,000260966465981955;
0,000154467072013226;
-4,21077512610181E-5;
-0,000215034963985315;
-0,00030218617108916;
-0,000322649050022385;
-0,000341090773756867;
-0,000402689808656489;
-0,000494817752499778;
-0,000564986886638946;
-0,000574897756915053;
-0,000539934670740676;
-0,000517302799228975;
-0,000551717869796248;
-0,000626002899973481;
-0,000662205102392625;
-0,000577714496585907;
-0,000354199068741754;
-6,38475283360116E-5;
0,000170816520483704;
0,000255554984244287;
0,00018330529537939;
3,06491702415491E-5;
-0,00010243955760377;
-0,000161406245051754;
-0,00016305697561582;
-0,000164175484871992;
-0,00020438530403582;
-0,000272581049995524;
-0,000322736257631353;
-0,000321299360863439;
-0,000281751527143199;
-0,000254150867395291;
-0,000277572458888916;
-0,000336937800724374;
-0,000364078404270522;
-0,000286832789157107;
-8,92278244953134E-5;
0,000165715006161898;
0,000371149747306243;
0,000445001297166065;
0,000381227800805014;
0,000246624694689812;
0,000128274703661327;
7,36650799221946E-5;
6,82001934751949E-5;
6,25688654791776E-5;
2,24172304220552E-5;
-4,25430095223626E-5;
-9,2321727087507E-5;
-9,7792672724526E-5;
-7,06188237300249E-5;
-5,41263885462866E-5;
-8,20833440366101E-5;
-0,000141369717284746;
-0,000172980001610169;
-0,00011453181228114;
4,77503416355936E-5;
0,00025943401076346;
0,000428340722463677;
0,000483757465681557;
0,000420573960658714;
0,000296415220609009;
0,000186299991328602;
0,00013109800855579;
0,000118258466112515;
0,000105419323256229;
6,31128823005004E-5;
-2,80102388703707E-7;
-5,04259345701303E-5;
-6,23500523868654E-5;
-4,60519930243967E-5;
-3,86248891965184E-5;
-6,89360235897137E-5;
-0,000125725690168621;
-0,000158543112748499;
-0,000114124856844734;
1,92350788624939E-5;
0,000195050051131311;
0,000334720375659309;
0,000378033432955403;
0,000320698948522091;
0,000211798999939656;
0,00011513696483384;
6,54215500613754E-5;
5,19655477411827E-5;
3,88074788862942E-5;
9,67219891148631E-7;
-5,44378732690169E-5;
-9,83325950520105E-5;
-0,000109604675604214;
-9,6741228522663E-5;
-9,11050139540814E-5;
-0,000117066362804022;
-0,00016510742746112;
-0,000192688568451569;
-0,000154968908404937;
-4,21615026371694E-5;
0,000106554408077092;
0,000225067125761261;
0,00026280998209278;
0,000216227530753049;
0,000126528459372999;
4,71942985653383E-5;
7,26515787030529E-6;
-2,23955249228696E-6;
-1,14101888856566E-5;
-4,11149036538326E-5;
-8,54016647200789E-5;
-0,000120021354860396;
-0,000127402795298591;
-0,00011464591467998;
-0,000107863658067226;
-0,000127309280038285;
-0,0001650596278198;
-0,000185810856980365;
-0,000152418552504666;
-5,68404904921688E-5;
6,84317285845861E-5;
0,000168700983672669;
0,000202212012149318;
0,00016608197048773;
9,43392445332412E-5;
3,10582563999946E-5;
1,20997183082464E-7;
-5,88722201806289E-6;
-1,1699036911113E-5;
-3,44304743307332E-5;
-6,91826762443915E-5;
-9,60886916933731E-5;
-0,000100787240547569;
-8,9105774128209E-5;
-8,23761548904504E-5;
-9,71033298298276E-5;
-0,000126804708110456;
-0,000142735518902867;
-0,000114723143987297;
-3,6294348125848E-5;
6,61353213554247E-5;
0,000148223285120561;
0,0001762029619626;
0,000147805033367869;
9,05634236631418E-5;
4,00479490895577E-5;
1,54841496181397E-5;
1,08818373503418E-5;
6,35743130444522E-6;
-1,18102589431601E-5;
-3,96687308104226E-5;
-6,13011288698292E-5;
-6,5235919660735E-5;
-5,61464443585128E-5;
-5,10491997246353E-5;
-6,30681302293369E-5;
-8,70160821449903E-5;
-0,000100051244753334;
-7,82711135556325E-5;
-1,66077785078694E-5;
6,39932804211137E-5;
0,000128501003584232;
0,000150327575305228;
0,000127753250428822;
8,24796847410083E-5;
4,24443449733627E-5;
2,26971021124899E-5;
1,85267464869874E-5;
1,43964144892924E-5;
-3,74639521571503E-7;
-2,26832636482731E-5;
-4,01499822923645E-5;
-4,3889312008123E-5;
-3,7542230446649E-5;
-3,42678335934492E-5;
-4,41708467214651E-5;
-6,3224576416565E-5;
-7,38607844083357E-5;
-5,77742684003662E-5;
-1,1150253906822E-5;
4,99446780392907E-5;
9,87789515056055E-5;
0,000115158009186767;
9,78468375975005E-5;
6,33502439511474E-5;
3,28106411195423E-5;
1,75618580786579E-5;
1,40283150358128E-5;
1,05338118408159E-5;
-9,04914510913533E-7;
-1,79426482887574E-5;
-3,13425515398701E-5;
-3,45153245283089E-5;
-3,01879589845087E-5;
-2,81025184810938E-5;
-3,56919279871277E-5;
-4,99608707387953E-5;
-5,80121752075744E-5;
-4,6494378221981E-5;
-1,27008083572745E-5;
3,1615214551257E-5;
6,70546023249573E-5;
7,90666511847281E-5;
6,68406472066938E-5;
4,22925305259644E-5;
2,05696671587496E-5;
9,72914205446155E-6;
7,19548267917388E-6;
4,69150394375894E-6;
-3,39343238803503E-6;
-1,53831925012619E-5;
-2,48063069528414E-5;
-2,70924126934852E-5;
-2,41653782581682E-5;
-2,27667195148451E-5;
-2,79853346247667E-5;
-3,77325897570115E-5;
-4,3208815539795E-5;
-3,54043771098102E-5;
-1,2581778246976E-5;
1,72846225364969E-5;
4,12144592459949E-5;
4,95938547707939E-5;
4,1981650963571E-5;
2,62821102605143E-5;
1,24056532141936E-5;
5,54931560918574E-6;
4,01130762605614E-6;
2,47936633685968E-6;
-2,58923467498932E-6;
-1,01018989360836E-5;
-1,5995313335482E-5;
-1,74554689658618E-5;
-1,57062917203259E-5;
-1,48795493690808E-5;
-1,80271763179395E-5;
-2,3848570530649E-5;
-2,71011399323349E-5;
-2,25411918140461E-5;
-9,26933998203429E-6;
8,01784858434003E-6;
2,19017892749315E-5;
2,70430449005652E-5;
2,33196786721781E-5;
1,51661881095538E-5;
7,96695836905328E-6;
4,44955680522805E-6;
3,66774828610577E-6;
2,86823756440744E-6;
2,91507071875809E-7;
-3,47308757567004E-6;
-6,43638468491122E-6;
-7,2954492111451E-6;
-6,67073868509748E-6;
-6,44916638160492E-6;
-7,93221100356759E-6;
-1,04966344893102E-5;
-1,19532478840003E-5;
-1,02879986297961E-5;
-5,31807927665992E-6;
1,07048160532532E-6;
6,22283737324806E-6;
8,45747039646009E-6;
7,92470241867688E-6;
6,09281248902194E-6;
4,48035730304973E-6;
3,70768746166744E-6;
3,47384693675495E-6;
3,20722733246256E-6;
2,66697590334027E-6;
2,01325851393924E-6;
1,47022130382429E-6;
1,05641401625468E-6;
6,64867947120635E-7;
3,15141342035975E-7;
1,90591735159566E-7;
3,39069023868325E-7;
3,6168642799709E-7;
-4,62001516626759E-7;
-2,55417470134894E-6;
-5,42257771155575E-6;
-7,6956973089546E-6;
-7,96650979204854E-6;
-5,85603943120772E-6;
-2,3981615957465E-6;
6,68043278281762E-7;
2,18903795307337E-6;
2,4071423541592E-6;
2,58470712874723E-6;
3,75580597688036E-6;
5,71931367988245E-6;
7,21837046055616E-6;
7,19520789321651E-6;
5,97333754290754E-6;
5,16771012595737E-6;
6,2024871357791E-6;
8,64362575514279E-6;
9,93093292793156E-6;
7,06333458933814E-6;
-8,84327078214041E-7;
-1,14378935044031E-5;
-1,98750837635589E-5;
-2,22217155183482E-5;
-1,79100445865174E-5;
-1,00515077729962E-5;
-3,08663145757998E-6;
3,61826974823858E-7;
9,86190872396333E-7;
1,5651615901946E-6;
4,18527824181022E-6;
8,34620254815344E-6;
1,15692754673602E-5;
1,19101933559715E-5;
1,00472950510123E-5;
8,90751263276512E-6;
1,0933651953512E-5;
1,52950884259683E-5;
1,76589213979036E-5;
1,31564802400234E-5;
4,52431652389357E-7;
-1,6357500632312E-5;
-2,98141712601626E-5;
-3,38497368354081E-5;
-2,77437198468956E-5;
-1,62995477457543E-5;
-6,15441445882199E-6;
-1,12387934397616E-6;
-1,50047452825988E-7;
7,74468415134469E-7;
4,58734316173076E-6;
1,05454423402871E-5;
1,51830882846266E-5;
1,5841275400661E-5;
1,34848430075362E-5;
1,2096606287178E-5;
1,49374187119091E-5;
2,08573177967754E-5;
2,41017596343965E-5;
1,83073972942272E-5;
1,81249509474362E-6;
-1,99906175736779E-5;
-3,74593143924596E-5;
-4,28586948050428E-5;
-3,53479210945783E-5;
-2,10751557110548E-5;
-8,41986620386973E-6;
-2,14166853572097E-6;
-8,92969385194895E-7;
3,03804547573129E-7;
5,0566780280504E-6;
1,24304965176824E-5;
1,81834233265493E-5;
1,90959957486764E-5;
1,63582819100709E-5;
1,47793634106953E-5;
1,82583933720717E-5;
2,53953634501325E-5;
2,9328557477182E-5;
2,25338125253688E-5;
3,09793811509873E-6;
-2,25808349313425E-5;
-4,31712308476502E-5;
-4,96526014671255E-5;
-4,10926857488214E-5;
-2,46743205671654E-5;
-1,01137140762654E-5;
-2,89264468324991E-6;
-1,4414879636917E-6;
-4,29059450827296E-8;
5,4204052425556E-6;
1,3866515854664E-5;
2,04651508439025E-5;
2,15736148654743E-5;
1,85526572190279E-5;
1,68334371296297E-5;
2,07936489924969E-5;
2,8844800416699E-5;
3,32972452535752E-5;
2,57623113592703E-5;
4,14180206768117E-6;
-2,44180164666041E-5;
-4,73359178763597E-5;
-5,46434202423548E-5;
-4,53425568856647E-5;
-2,73764599842734E-5;
-1,14393179147892E-5;
-3,53887261294027E-6;
-1,94331441751731E-6;
-3,99140824571596E-7;
5,57799163633799E-6;
1,4799320144564E-5;
2,20117546156443E-5;
2,32703706539438E-5;
2,00584670509871E-5;
1,82493294475842E-5;
2,2558486409471E-5;
3,12631627066305E-5;
3,60915068212061E-5;
2,80509444389255E-5;
4,9166642179477E-6;
-2,56436511053781E-5;
-5,01841693033381E-5;
-5,80852841697557E-5;
-4,8305964082153E-5;
-2,93090761426317E-5;
-1,2452367194218E-5;
-4,09766937438005E-6;
-2,40338502877028E-6;
-7,58019125234391E-7;
5,56540563236163E-6;
1,5306247919422E-5;
2,29333620892472E-5;
2,43052806338054E-5;
2,09858322131832E-5;
1,913339696565E-5;
2,36786235463561E-5;
3,28117396393651E-5;
3,78928222872629E-5;
2,95523856584108E-5;
5,4898466717414E-6;
-2,63028591847815E-5;
-5,18503789796253E-5;
-6,01398904074121E-5;
-5,01070280830375E-5;
-3,05256116494342E-5;
-1,31441748773176E-5;
-4,52958415589859E-6;
-2,77583005209277E-6;
-1,06773120880129E-6;
5,4566711757397E-6;
1,54951434116058E-5;
2,33636945442158E-5;
2,48156821561396E-5;
2,14591684817955E-5;
1,96020668689444E-5;
2,42842845786979E-5;
3,36498656878582E-5;
3,88754300198071E-5;
3,0410146072065E-5;
5,92146196540447E-6;
-2,6444058056866E-5;
-5,24697181791165E-5;
-6,09711815514009E-5;
-5,08777559377669E-5;
-3,10950624962514E-5;
-1,35284468024059E-5;
-4,82201744776872E-6;
-3,0442064805507E-6;
-1,30821383403911E-6;
5,29081635480546E-6;
1,54349859064808E-5;
2,33945065241274E-5;
2,48956105562159E-5;
2,15596144247609E-5;
1,97283347600801E-5;
2,44607102867767E-5;
3,38894008349695E-5;
3,91647886993083E-5;
3,07211436307385E-5;
6,23121291562827E-6;
-2,61479498594148E-5;
-5,22030363937967E-5;
-6,07663884884882E-5;
-5,07754911169611E-5;
-3,11160119788799E-5;
-1,36520077277105E-5;
-4,99669281399913E-6;
-3,22576378566391E-6;
-1,49236706220364E-6;
5,07352715853884E-6;
1,51602683396126E-5;
2,30825413902686E-5;
2,46052227767278E-5;
2,13368081048007E-5;
1,95557296423235E-5;
2,42641106775699E-5;
3,36124890757384E-5;
3,88570225754257E-5;
3,05567289344505E-5;
6,42091462124394E-6;
-2,55035937281328E-5;
-5,12117145433175E-5;
-5,97098931007217E-5;
-4,99559894812759E-5;
-3,06891050943223E-5;
-1,35668047170244E-5;
-5,08128419774544E-6;
-3,34281744945285E-6;
-1,63729083957235E-6;
4,80592599968494E-6;
1,4699651748294E-5;
2,24779703167448E-5;
2,39989402665465E-5;
2,08366304168067E-5;
1,91255698938801E-5;
2,37483551997593E-5;
3,2897602694096E-5;
3,80442401572892E-5;
2,99872247152455E-5;
6,4982122401538E-6;
-2,45855665477147E-5;
-4,96357432087192E-5;
-5,79622576022989E-5;
-4,85534338642649E-5;
-2,98980650739066E-5;
-1,33119527144938E-5;
-5,09253669927767E-6;
-3,40696656396494E-6;
-1,74960094569784E-6;
4,49815081988579E-6;
1,40884517397614E-5;
2,16357855271139E-5;
2,3135735660241E-5;
2,01103937723235E-5;
1,84850705177795E-5;
2,29720335158823E-5;
3,18255818593728E-5;
3,68195786355201E-5;
2,90859844657324E-5;
6,47960890393706E-6;
-2,34519633597844E-5;
-4,759267935567E-5;
-5,56600349152452E-5;
-4,66809842193474E-5;
-2,88109135157412E-5;
-1,29155992414298E-5;
-5,03876576615372E-6;
-3,42222488809058E-6;
-1,8291597392731E-6;
4,16510051007474E-6;
1,3363918831588E-5;
2,06106350269089E-5;
2,20735317725136E-5;
1,9208833761291E-5;
1,76809764772708E-5;
2,19917993774419E-5;
3,04727794247992E-5;
3,52701477127582E-5;
2,79220572461426E-5;
6,38283022621965E-6;
0,00931128170602557;
0,0225845439914916;
0,0163198132493465;
0,00938865722174282;
0,0121419038135017;
0,00701376459504888;
0,00562988959771977;
0,00457931747862101;
0,000838623605741523;
0,00103621159054666;
-0,00117788123623884;
-0,00197250255993563;
-0,00278627423390625;
-0,00453550553875447;
-0,0048705715543149;
-0,00583504416594831;
-0,00591231172626167;
-0,00614901649537566;
-0,0069670214635615;
-0,00791448165066482;
-0,0093696206208364;
-0,0102853977998049;
-0,0105683632659184;
-0,0101504421291195;
-0,00923365019360299;
-0,00844209519810883;
-0,00783520261314208;
-0,00746079596368067;
-0,00704994822605298;
-0,00641520842192673;
-0,00566375645872192;
-0,00494029370861068;
-0,00443353621223006;
-0,00407371988535006;
-0,00364809023548318;
-0,0030069601849414;
-0,00220105211411409;
-0,00154133936212045;
-0,00133604001301183;
-0,00165923796213386;
-0,00224496023006228;
-0,00262670845077412;
-0,00245334003658673;
-0,00169638814316591;
-0,000649088856795874;
0,000305543370120591;
0,000959091895856559;
0,00137264372125016;
0,00176324276712599;
0,00228158110279971;
0,00288451381541401;
0,00339508354786622;
0,00368309918409264;
0,00380028072775433;
0,00393940364792742;
0,00425172746223682;
0,0046794498021142;
0,00495851014693853;
0,00480880661048238;
0,00416780558825015;
0,00328069891714736;
0,00256453314272829;
0,00234089581396956;
0,00263497050117876;
0,0031865300561735;
0,00365498832874986;
0,00385442237948685;
0,00384284377012924;
0,00381544267660974;
0,00390896484356154;
0,00408628071904849;
0,00419014221716165;
0,00410587753535957;
0,00388056459363848;
0,00368749066273951;
0,00366242378733772;
0,00375433141366322;
0,00372845106032876;
0,00333566598798371;
0,00252101243103225;
0,00150342029828132;
0,000654442156658762;
0,00026026510940577;
0,000343034557744879;
0,000671154312166859;
0,000941773866497966;
0,000989656832234202;
0,000866226800607021;
0,000744486714383226;
0,000745379669571047;
0,000835517836965453;
0,000875077335657043;
0,000762065556309705;
0,000537761164807218;
0,0003550513077025;
0,000333428665397162;
0,00042707373389622;
0,000427836110586865;
0,000115110481068764;
-0,000560040686056902;
-0,0107382229924908;
-0,0247216273504395;
-0,0187425101805863;
-0,0116529079765302;
-0,0140163461720047;
-0,00854481790243964;
-0,00701575674783408;
-0,0059718198166631;
-0,00223209821461792;
-0,0023151450969776;
9,78534567659605E-5;
0,00104745277193362;
0,00187860526388969;
0,00354475310382692;
0,00383521032491645;
0,00490198231217492;
0,00518616202035061;
0,00554421657373355;
0,00619661415901055;
0,00664657820925297;
0,00744754548044143;
0,00784994949696561;
0,00798888567431698;
0,00781286176980353;
0,00733727636911811;
0,00694292643374676;
0,00655635529660857;
0,00626580597419808;
0,00593976467383118;
0,00548648554266234;
0,00498576951682565;
0,00447029918261332;
0,00404710204155417;
0,00367877473747921;
0,00327353228702339;
0,00277598624704792;
0,0021999788922019;
0,00169112956968695;
0,00138277770872484;
0,00131022086073784;
0,00135981991796433;
0,00132329193709933;
0,00104765685866187;
0,000518726741398353;
-0,000131960117781016;
-0,000731956113018072;
-0,00118763192560871;
-0,00152489629496731;
-0,00184184892232662;
-0,00220639665399684;
-0,00259893316705419;
-0,00293900716019668;
-0,00316665451373014;
-0,00330546423361447;
-0,00344381723116541;
-0,00365166980665193;
-0,00390285026066165;
-0,00407531972486808;
-0,00403898629864239;
-0,00376427322059011;
-0,00336528467286961;
-0,00303735306422695;
-0,00293211851239524;
-0,00306255065060014;
-0,00330686824774977;
-0,00350456125454758;
-0,00356766793077444;
-0,00352391302173445;
-0,00346673019292745;
-0,00346211051974366;
-0,00349293713338751;
-0,00348412757882835;
-0,00338067910690748;
-0,00320554801927472;
-0,00304308158437831;
-0,00295987604360429;
-0,00293176232248872;
-0,00284450663537593;
-0,00257611534736497;
-0,00209933135627878;
-0,00152178823328825;
-0,00102719857099471;
-0,000757992770268564;
-0,00072612376274429;
-0,000817094206739056;
-0,000880124181037181;
-0,000832561658348167;
-0,000700202094089543;
-0,00057027709722745;
-0,000504193892670703;
-0,000485460071268337;
-0,00044334739491698;
-0,00032595265426117;
-0,000154257344666612;
-6,54852658022758E-6;
5,55838197331236E-5;
5,53645109540947E-5;
0,000100042929108161;
0,000303994461474067;
0,000693145399715451;
0,00116769077686239;
0,00155706982742913;
0,00172935586072312;
0,00167421657591029;
0,00149897907520059;
0,00134459252988607;
0,00128850992769689;
0,00130731370144592;
0,00132053191674422;
0,0012717422940335;
0,00117686670455088;
0,0011021074453456;
0,00109611685633038;
0,00113990933537459;
0,00116139704752207;
0,00110401332387456;
0,000989758038387111;
0,000918349516110855;
0,000995966466410462;
0,00124685105277928;
0,0015789631986832;
0,00183494925628069;
0,00189327895764513;
0,00174479438796281;
0,00148891929156971;
0,00125597418436758;
0,00111756868674621;
0,00105223038921042;
0,000985910957823114;
0,000866765453295315;
0,000709588048170335;
0,000575412012784172;
0,000509040885183984;
0,000493009039792201;
0,000461032756895055;
0,000361139595430044;
0,000213560670758117;
0,00010985178902144;
0,00014739037953467;
0,000348264241961076;
0,000627876280631893;
0,000841818784057525;
0,000878640329277809;
0,000729926262275535;
0,000486690342752248;
0,000268134954992807;
0,000139625971046278;
8,13292708392102E-5;
2,53571810182391E-5;
-7,58281316976017E-5;
-0,000208849198084076;
-0,00031812285071483;
-0,000362936998309475;
-0,000359437191526845;
-0,000368280391447203;
-0,000437017849892195;
-0,000547351324838597;
-0,000616021850381855;
-0,000554547027102651;
-0,000343063154767442;
-5,88016681332669E-5;
0,000166675800975999;
0,000231895807960383;
0,000129128700755669;
-5,90104850537387E-5;
-0,000224374142912368;
-0,000307775153133246;
-0,000327383013334576;
-0,000344930464985621;
-0,000403637662385334;
-0,000491471904430183;
-0,000558170182635474;
-0,000566977233980192;
-0,000532634593095275;
-0,000510140392960772;
-0,000542580659017548;
-0,000613456631082645;
-0,000647566859636989;
-0,000565053721575126;
-0,000348095299832753;
-6,65311522680227E-5;
0,00016084060373978;
0,000242471754535473;
0,000171423326302252;
2,21943315720724E-5;
-0,000107770711556157;
-0,000165193712909547;
-0,000166467757946738;
-0,000167162180655068;
-0,000206142039813125;
-0,000272560160256624;
-0,000321219975848378;
-0,000319096443138608;
-0,00027943115677543;
-0,000251582494324694;
-0,000274172672210685;
-0,00033234812078019;
-0,000358641236288485;
-0,000281470954963891;
-8,48865068683787E-5;
0,0001685603889493;
0,000372555785314722;
0,000445257235524053;
0,000380555452612255;
0,000245142854504318;
0,000126158926909413;
7,12269324442274E-5;
6,57361384972953E-5;
6,01326474356326E-5;
1,9805429695623E-5;
-4,55061308932939E-5;
-9,54621777394389E-5;
-0,000100603007749852;
-7,26925226298198E-5;
-5,56290861095471E-5;
-8,37200281346065E-5;
-0,000143688113139004;
-0,000175501887826915;
-0,000115531581195419;
5,03862766363808E-5;
0,000266710112402297;
0,000439112230103616;
0,000495050287053507;
0,000429185412592571;
0,000300696656672691;
0,000186823106306373;
0,000129751569802557;
0,000116558765650359;
0,000103424001541376;
5,97756914561601E-5;
-5,73917283971831E-6;
-5,74546966789921E-5;
-6,93472942086924E-5;
-5,18004860617048E-5;
-4,35359610575251E-5;
-7,47836398204824E-5;
-0,000133809357218496;
-0,000167705412654596;
-0,00012044767008485;
2,03974980124939E-5;
0,000205929852300963;
0,000353186879224432;
0,000398425346210778;
0,000336992622831346;
0,000220887891641762;
0,000117913496192342;
6,50654484258451E-5;
5,0991108528033E-5;
3,72739041274401E-5;
-2,86321885569138E-6;
-6,18411366692635E-5;
-0,00010844920920331;
-0,000119941778539955;
-0,000105420801841295;
-9,87383052144563E-5;
-0,000126297189712597;
-0,000177846918958793;
-0,000207228282924828;
-0,000165611536369183;
-4,2206555869207E-5;
0,000120337927182958;
0,000249757264755376;
0,000290579519369105;
0,000238778032334668;
0,000139575887900356;
5,18842846520654E-5;
7,81033247169519E-6;
-2,52680309264247E-6;
-1,24708470367257E-5;
-4,52412482208215E-5;
-9,42675041136484E-5;
-0,000132523473541115;
-0,000140338525138133;
-0,000125611267348127;
-0,00011762835320701;
-0,000139207458725632;
-0,000181487603520432;
-0,000204624171024693;
-0,00016651221284398;
-5,78884670399004E-5;
8,44534152582508E-5;
0,000198253626672607;
0,000235770313967153;
0,00019356306939926;
0,000110533653323915;
3,73049124269127E-5;
1,43474013242437E-6;
-5,574576397758E-6;
-1,23299069827893E-5;
-3,8728836912796E-5;
-7,91321034061827E-5;
-0,000110398749162409;
-0,0001157077751911;
-0,000101827145998204;
-9,37894374047524E-5;
-0,000111072585387793;
-0,000146098426064129;
-0,000164875678761423;
-0,000131528348402166;
-3,81958268092464E-5;
8,37706558793903E-5;
0,000181394926292431;
0,00021410373704604;
0,000179004004452682;
0,000109150152903828;
4,75018762692053E-5;
1,74177010276758E-5;
1,1687794936332E-5;
6,09094708188239E-6;
-1,61957378870136E-5;
-5,03882870209164E-5;
-7,69270996805924E-5;
-8,16144547200228E-5;
-7,01688702754124E-5;
-6,36951481567104E-5;
-7,85896621745261E-5;
-0,000108453889754008;
-0,000124684350726812;
-9,71346775386816E-5;
-1,92288754389908E-5;
8,26938980568015E-5;
0,00016419720728057;
0,000191297121150323;
0,000161601856832819;
0,000102794059705377;
5,07982365841068E-5;
2,51206051098266E-5;
1,97342693235524E-5;
1,44398406490322E-5;
-4,768458855217E-6;
-3,38920816289115E-5;
-5,66527614368546E-5;
-6,12547589341009E-5;
-5,24562815995593E-5;
-4,77700189544004E-5;
-6,07768602575457E-5;
-8,61597019456666E-5;
-0,00010024048755334;
-7,81069459315227E-5;
-1,43555168400397E-5;
6,92491406448127E-5;
0,000136059862176558;
0,000158098193513047;
0,000133424633248213;
8,48226603215886E-5;
4,18057795781833E-5;
2,03708733923133E-5;
1,55659524907882E-5;
1,08480220087014E-5;
-5,23025270140008E-6;
-2,93879541261546E-5;
-4,8331453716626E-5;
-5,2448790637704E-5;
-4,56279228328085E-5;
-4,21235817639655E-5;
-5,29654945109339E-5;
-7,38207874067818E-5;
-8,54791727899435E-5;
-6,77726235916142E-5;
-1,63597460207851E-5;
5,11365744152931E-5;
0,000105117814327858;
0,000123036106168589;
0,000103357627568869;
6,4434168948475E-5;
2,99843115610999E-5;
1,28342365376211E-5;
9,0017340205023E-6;
5,24246131220845E-6;
-7,58474147561275E-6;
-2,68480712079659E-5;
-4,19456247060691E-5;
-4,52336216959552E-5;
-3,98163282843965E-5;
-3,70157818442403E-5;
-4,55670001362309E-5;
-6,20239939642002E-5;
-7,11948838725433E-5;
-5,71757631676912E-5;
-1,65783355569557E-5;
3,66956674971121E-5;
7,93761996953955E-5;
9,37882241567908E-5;
7,87608247116707E-5;
4,86714886656845E-5;
2,2045139270159E-5;
8,86810703355851E-6;
6,02737818291831E-6;
3,23159107548155E-6;
-6,5972244489256E-6;
-2,140813124482E-5;
-3,30054268567122E-5;
-3,55032934930787E-5;
-3,13048885532952E-5;
-2,91130276065784E-5;
-3,56146243790199E-5;
-4,81550800337723E-5;
-5,51256474012855E-5;
-4,44221557097018E-5;
-1,35036724792273E-5;
2,70439762406255E-5;
5,95856743660933E-5;
7,07827956016702E-5;
5,97872373039108E-5;
3,7443363516512E-5;
1,76614488448335E-5;
7,90637399835286E-6;
5,83783854651759E-6;
3,78567011911008E-6;
-3,49784996085393E-6;
-1,44768552010837E-5;
-2,30878835779418E-5;
-2,50016451108637E-5;
-2,19994714370202E-5;
-2,04652454087747E-5;
-2,52738233029157E-5;
-3,44706414004916E-5;
-3,96140529965786E-5;
-3,19562668878801E-5;
-9,70335381333632E-6;
1,94872068300038E-5;
4,29529016311479E-5;
5,11796405269222E-5;
4,36038254180493E-5;
2,79569208296615E-5;
1,40856497613977E-5;
7,23598560162406E-6;
5,74789330907166E-6;
4,25627833963404E-6;
-8,78217857168192E-7;
-8,57269759347369E-6;
-1,46362260904326E-5;
-1,61054280510964E-5;
-1,42156928991063E-5;
-1,33173579295356E-5;
-1,66974537979612E-5;
-2,30152854675009E-5;
-2,66027323834582E-5;
-2,16492710140473E-5;
-7,01376765493389E-6;
1,22073118043286E-5;
2,76972962837259E-5;
3,32825436673931E-5;
2,86475302871377E-5;
1,8807349834736E-5;
1,00649152097722E-5;
5,73222158921466E-6;
4,7418644800852E-6;
3,7354937488777E-6;
4,72800568753466E-7;
-4,35802503167426E-6;
-8,19439083992012E-6;
-9,25982051024826E-6;
-8,31546836974807E-6;
-7,94667782049149E-6;
-1,00635058415241E-5;
-1,38582861330544E-5;
-1,60670499921849E-5;
-1,34234599683403E-5;
-5,35112889105115E-6;
5,26976322335341E-6;
1,38807796448923E-5;
1,71951716280447E-5;
1,5111459723726E-5;
1,02996172313724E-5;
6,00505307450779E-6;
3,87221051548919E-6;
3,34431607638269E-6;
2,79099657311458E-6;
1,17556403172177E-6;
-1,15399352046077E-6;
-3,03543077742747E-6;
-3,71212870715464E-6;
-3,53786124544455E-6;
-3,58324608396662E-6;
-4,57769804227478E-6;
-6,17109778817132E-6;
-7,15957082127124E-6;
-6,45508313006296E-6;
-3,96407728562497E-6;
-6,71005486921268E-7;
2,07779582971243E-6;
3,46123139065869E-6;
3,56047586539855E-6;
3,04524278215032E-6;
2,55488788206414E-6;
2,31355526358968E-6;
2,1991849548715E-6;
2,05114153132733E-6;
1,85548764553397E-6;
1,67070422236418E-6;
1,46991694364765E-6;
1,14457913886863E-6;
6,86554618585975E-7;
3,08660251283413E-7;
2,80830456438397E-7;
5,65562538842716E-7;
6,24547053284941E-7;
-2,94605013012678E-7;
-2,5055406547733E-6;
-5,39266467742842E-6;
-7,59373301247563E-6;
-7,85235448407412E-6;
-5,93349806911264E-6;
-2,84998882741478E-6;
-1,52839390712671E-7;
1,18938223453801E-6;
1,41955030885787E-6;
1,6094012399695E-6;
2,60160974321208E-6;
4,21182268900342E-6;
5,41811993543244E-6;
5,38883729191582E-6;
4,40482182641049E-6;
3,75018686578918E-6;
4,52803237920414E-6;
6,37739915547335E-6;
7,30913622712329E-6;
5,03990508702009E-6;
-1,08193842033989E-6;
-9,11140028076639E-6;
-1,54383206380691E-5;
-1,70838114890348E-5;
-1,36853248346264E-5;
-7,64792327628709E-6;
-2,33334907728085E-6;
3,04868550278319E-7;
8,10836582367495E-7;
1,27212581205346E-6;
3,23653832570097E-6;
6,3194440315392E-6;
8,68070476511343E-6;
8,89488123035763E-6;
7,48017863627956E-6;
6,59890145160964E-6;
8,03611149812182E-6;
1,1165756531111E-5;
1,28126804568431E-5;
9,44377253934938E-6;
1,32208392790733E-7;
-1,20934276124906E-5;
-2,17932358392529E-5;
-2,45879562936426E-5;
-2,00114885944002E-5;
-1,1598053504617E-5;
-4,17617466744973E-6;
-4,96205482453376E-7;
2,29494171237135E-7;
9,08339822422784E-7;
3,65621810644463E-6;
7,92671058681163E-6;
1,12212813801145E-5;
1,16375620223033E-5;
9,88445445384981E-6;
8,82807089916828E-6;
1,0798964239469E-5;
1,49586346851494E-5;
1,71847555732828E-5;
1,29479115828543E-5;
1,10267525538325E-6;
-1,44602020119619E-5;
-2,68476316228871E-5;
-3,0569954927167E-5;
-2,5079139145714E-5;
-1,48020649580705E-5;
-5,72493050821219E-6;
-1,22589532258418E-6;
-3,25596596414273E-7;
5,27308511705268E-7;
3,89384218392003E-6;
9,10033600650588E-6;
1,31331641551789E-5;
1,3717750408109E-5;
1,17118821416848E-5;
1,05293261014597E-5;
1,29239796519124E-5;
1,78920251328088E-5;
2,05776013216915E-5;
1,5681617422445E-5;
1,89063073136538E-6;
-1,62402239719738E-5;
-3,07008942162985E-5;
-3,5150173953207E-5;
-2,89774645448762E-5;
-1,72914673140485E-5;
-6,96055917950227E-6;
-1,84011193846521E-6;
-8,0514692860782E-7;
1,83051205084909E-7;
4,02127999046078E-6;
9,93937183975021E-6;
1,45360365085682E-5;
1,52575667164353E-5;
1,30735094235791E-5;
1,18066561398026E-5;
1,45258728941148E-5;
2,01038578293042E-5;
2,31406782252084E-5;
1,77684745907956E-5;
2,55065376472702E-6;
-1,74683840795352E-5;
-3,34592451492811E-5;
-3,84582252971914E-5;
-3,18093558926894E-5;
-1,91168745643249E-5;
-7,88796210958089E-6;
-2,32220271216142E-6;
-1,18966126025244E-6;
-1,02323874285918E-7;
4,0759715352979E-6;
1,05056898733445E-5;
1,55101642543532E-5;
1,63385290156873E-5;
1,40394360836791E-5;
1,27227515687791E-5;
1,56770022373028E-5;
2,16881926480775E-5;
2,49788127955121E-5;
1,92887048228826E-5;
3,09754138138234E-6;
-1,82146185903952E-5;
-3,52600293348617E-5;
-4,06533191762368E-5;
-3,37083004624938E-5;
-2,03617026910663E-5;
-8,54656754336214E-6;
-2,69034527222078E-6;
-1,49365723379367E-6;
-3,3980999645266E-7;
4,06255075434741E-6;
1,08282139838862E-5;
1,61031228471066E-5;
1,70107563348004E-5;
1,46504090964288E-5;
1,33127867729477E-5;
1,64230954675405E-5;
2,27126726622771E-5;
2,61712776922345E-5;
2,02999175248228E-5;
3,52882695085049E-6;
-1,85596628014117E-5;
-3,6246018938414E-5;
-4,1897496600433E-5;
-3,4810927577419E-5;
-2,11143233286519E-5;
-8,98219229584067E-6;
-2,96913395303951E-6;
-1,73701310777821E-6;
-5,44728661198548E-7;
3,98155036888468E-6;
1,0931418959159E-5;
1,63580086019343E-5;
1,73208493396074E-5;
1,49453456133193E-5;
1,36114884569571E-5;
1,68097067004577E-5;
2,32442411821878E-5;
2,67967454091109E-5;
2,08613794624794E-5;
3,8484582666956E-6;
-1,85719356010063E-5;
-3,65429567368065E-5;
-4,23340566974769E-5;
-3,52365325793094E-5;
-2,14487962858791E-5;
-9,22898874149768E-6;
-3,1726790992222E-6;
-1,92918874471155E-6;
-7,22066580618911E-7;
3,84290986786445E-6;
1,08476319346286E-5;
1,63245759896385E-5;
1,73219160713865E-5;
1,49702872125231E-5;
1,36610413208435E-5;
1,68890327442714E-5;
2,33548552316917E-5;
2,6937963895935E-5;
2,10377734697081E-5;
4,06976802788439E-6;
-1,83052842214345E-5;
-3,62580217105583E-5;
-4,20868056815184E-5;
-3,50871711505209E-5;
-2,14258135032451E-5;
-9,31119684260363E-6;
-3,30708788790789E-6;
-2,072347148494E-6;
-8,70214978176555E-7;
3,66164746914269E-6;
1,06121553146951E-5;
1,60538394627372E-5;
1,70677422210273E-5;
1,47721996308574E-5;
1,35045340900259E-5;
1,67130394410189E-5;
2,31143240933182E-5;
2,66743476019637E-5;
2,08916118075453E-5;
4,20780579869743E-6;
-1,78066795265739E-5;
-3,548752977445E-5;
-4,12677531704934E-5;
-3,44553752186441E-5;
-2,11004265024697E-5;
-9,25084203702235E-6;
-3,37809906509638E-6;
-2,16888557027585E-6;
-9,88372465061182E-7;
3,45058682519353E-6;
1,0256153671003E-5;
1,55911479484836E-5;
1,66060560598722E-5;
1,43924505838233E-5;
1,31796699106569E-5;
1,63274197262254E-5;
2,25845177237736E-5;
2,60764499677819E-5;
2,04779980958047E-5;
4,27437273908636E-6;
-1,71208908947949E-5;
-3,43213061919247E-5;
-3,9981192332505E-5;
-3,34278976572648E-5;
-2,05254563297125E-5;
-9,07082179560181E-6;
-3,3938473841112E-6;
-2,22392143805235E-6;
-1,07873976762589E-6;
3,21847296392112E-6;
9,80505092691322E-6;
1,49748570520141E-5;
1,59774678888997E-5;
1,38660005808631E-5;
1,27182007918924E-5;
1,5771263300929E-5;
2,18192853268253E-5;
2,52061112036225E-5;
1,98449404035276E-5;
4,27847027895731E-6;
-1,62899406545286E-5;
-3,28420388444518E-5;
-3,8322877625552E-5;
-3,20846917909582E-5;
-1,97502616233022E-5;
-8,79348208800218E-6;
-3,36329925884774E-6;
-2,24359632999284E-6;
-1,14472484045487E-6;
2,97185842521687E-6;
9,28053173504496E-6;
1,42384267620112E-5;
1,52176135747686E-5;
1,32235515801699E-5;
1,21480917424919E-5;
1,50792602715906E-5;
2,08666999286869E-5;
2,41187209606247E-5;
1,90355704058591E-5;
4,22838335386214E-6;
-1,53511902180508E-5;
-3,11234940008533E-5;
-3,63783157817646E-5;
-3,04971807284685E-5;
-1,8818923255453E-5;
-8,43874661840268E-6;
-3,29439405813149E-6;
-2,23327690610011E-6;
-1,18919384484455E-6;
2,71682366841242E-6;
8,70223670275224E-6;
1,34120672142534E-5;
1,43587271931807E-5;
1,2493027660311E-5;
1,14948997321772E-5;
1,42830239002963E-5;
1,97703506226208E-5;
2,28644431806036E-5;
1,80892242108058E-5;
4,13252667492051E-6;
-1,43367805119349E-5;
-2,92302025892357E-5;
-3,42225572753637E-5;
-2,87280346104548E-5;
-1,77699695847999E-5;
-8,02379850718017E-6;
-3,19372395672323E-6;
-2,19728967843149E-6;
-1,21427642242788E-6;
2,45914854917889E-6;
8,0879479191201E-6;
1,25229235220787E-5;
1,34297685600312E-5;
1,16996099951353E-5;
1,07817383864106E-5;
1,34110259931975E-5;
1,85692954599689E-5;
2,14881670051779E-5;
1,704127399947E-5;
3,9990423772971E-6;
-1,32743019468721E-5;
-2,7218340497534E-5;
-3,19211586806306E-5;
-2,68320640650207E-5;
-1,66371187561411E-5;
-7,56368820849976E-6;
-3,06708742295326E-6;
-2,13948043982119E-6;
-1,22190905088712E-6;
2,20381835798269E-6;
7,45315866355845E-6;
1,15947032154195E-5;
1,24560546209912E-5;
1,08653329886606E-5;
1,00288616991835E-5;
1,24882272137683E-5;
1,72977648190182E-5;
2,0029246154026E-5;
1,59228119642455E-5;
3,83529201250609E-6;
-1,21875699005516E-5;
-2,51367042856974E-5;
-2,95311992459965E-5;
-2,48571115080516E-5;
-1,544995286724E-5;
-7,07183157882665E-6;
-2,9198985836392E-6;
-2,06356989747064E-6;
-1,21415459690335E-6;
1,95477738332134E-6;
6,81094145774175E-6;
1,06476185491635E-5;
1,14592382607368E-5;
1,00090607854594E-5;
9,2536280108201E-6;
1,15360936795921E-5;
1,59852858166695E-5;
1,85216863936742E-5;
1,47607599177553E-5;
3,6477590550801E-6;
-1,10969932780164E-5;
-2,3027288089105E-5;
-2,71018895659839E-5;
-2,28445407848551E-5;
-1,42342144875208E-5;
-6,56011106526572E-6;
-2,75717186510379E-6;
-1,97312178829281E-6;
-1,19314719555803E-6;
1,7150611128781E-6;
6,17218366481026E-6;
9,69872558454398E-6;
1,04576572618967E-5;
9,14678666760117E-6;
8,47079566845785E-6;
1,05729423751174E-5;
1,46571081448148E-5;
1,69946226275908E-5;
1,35782718966315E-5;
3,44220833700755E-6;
-1,00197150728463E-5;
-2,09256605506926E-5;
-2,46750340273972E-5;
-2,08295720698913E-5;
-1,30119201530852E-5;
-6,03882718612505E-6;
-2,58339615602164E-6;
-1,87138519735849E-6;
-1,1609136191064E-6;
1,48703367356787E-6;
5,54591792570276E-6;
8,76230473276313E-6;
9,46672220747771E-6;
8,29199974587646E-6;
7,69285834629504E-6;
9,61430617613517E-6;
1,33346521187207E-5;
1,54727991335596E-5;
1,2395114401223E-5;
3,22382432965562E-6;
-8,96980524971771E-6;
-1,88614124869713E-5;
-2,22855365865678E-5;
-1,88416944977237E-5;
-1,1801583672623E-5;
-5,51672843762039E-6;
-2,40247946582036E-6;
-1,76124013117807E-6;
-1,1193103688376E-6;
1,27251271461079E-6;
4,93954083989743E-6;
7,8501541943152E-6;
8,49921545863673E-6;
7,45592456984515E-6;
6,93024790941172E-6;
8,67318308218394E-6;
1,20358440530617E-5;
1,39769441887832E-5;
1,12279435591098E-5;
2,99723696445618E-6;
-7,95854598905974E-6;
-1,68586937382753E-5;
-1,99620212841989E-5;
-1,69051689862575E-5;
-1,06185173726572E-5;
-5,00115558135662E-6;
-2,21780913024682E-6;
-1,64523268384811E-6;
-1,07003921713191E-6;
1,07281223384953E-6;
4,35894397748174E-6;
6,97179569933948E-6;
7,56550283720757E-6;
6,64770253622219E-6;
6,19150614403764E-6;
7,76023511244664E-6;
1,07753875665164E-5;
1,25240896599491E-5;
1,00905414235914E-5;
2,76650994165827E-6;
-6,99476608701902E-6;
-1,49367935211552E-5;
-1,77274828291867E-5;
-1,5039573097743E-5;
-9,47517391287163E-6;
-4,49819544232583E-6;
-2,03231496094173E-6;
-1,52562151826243E-6;
-1,01468041034115E-6;
8,88769923373755E-7;
3,80864520799128E-6;
6,13468246010867E-6;
6,6737507278788E-6;
5,87456488483811E-6;
5,48342495790404E-6;
6,88397917244724E-6;
9,56505426575892E-6;
1,11278994744434E-5;
8,99405174609211E-6;
2,53514963346638E-6;
-6,08512897348199E-6;
-1,31106615553321E-5;
-1,5599881688277E-5;
-1,32602942440808E-5;
-8,38143884938989E-6;
-4,01280847422093E-6;
-1,84851468432712E-6;
-1,40440476719269E-6;
-9,54703913490574E-7;
7,20812275230729E-7;
3,29194634440558E-6;
5,34441293213398E-6;
5,83015993129679E-6;
5,14204491093052E-6;
4,8112421347944E-6;
6,0510195449439E-6;
8,41398848550386E-6;
9,79902455341217E-6;
7,94725469375872E-6;
2,30614957317464E-6;
-5,23438389491339E-6;
-1,13914068244951E-5;
-1,35927016637733E-5;
-1,15789745198548E-5;
-7,34490198576746E-6;
-3,54893084404471E-6;
-1,66853215654097E-6;
-1,28332057748082E-6;
-8,91444636119551E-7;
5,6902241969046E-7;
2,81109048142438E-6;
4,60497594593698E-6;
5,03920670777165E-6;
4,45417677971096E-6;
4,17882621761689E-6;
5,26627106175033E-6;
7,32901273954779E-6;
8,54544636537548E-6;
6,95683450671459E-6;
2,08203480016311E-6;
-4,44561125054705E-6;
-9,78674667280867E-6;
-1,17154736202862E-5;
-1,00039519565471E-5;
-6,37110869772959E-6;
-3,10957274972909E-6;
-1,49412063919961E-6;
-1,16385508112345E-6;
-8,26099214727058E-7;
4,33206592073553E-7;
2,36740579177875E-6;
3,9189534012325E-6;
4,30387021264284E-6;
3,81369061788027E-6;
3,58884346157667E-6;
4,53316472401326E-6;
6,31490772851703E-6;
7,37279301833796E-6;
6,02761998896417E-6;
1,86490579757212E-6;
-3,72044084704429E-6;
-8,30144925937409E-6;
-9,97428206832034E-6;
-8,54066875899858E-6;
-5,46380597512671E-6;
-2,69692725125919E-6;
-1,32670018719767E-6;
-1,04725903404732E-6;
-7,59735195809514E-7;
3,12938981178937E-7;
1,96144651091796E-6;
3,28771675497398E-6;
3,62582672118453E-6;
3,22218390156952E-6;
3,04291829184222E-6;
3,8538393300566E-6;
5,37467732125108E-6;
6,28464491903302E-6;
5,16281061442084E-6;
1,65646584973207E-6;
-3,05927239513432E-6;
-6,93774582363557E-6;
-8,37223671388513E-6;
-7,19207403524774E-6;
-4,62519450745274E-6;
-2,31246680259185E-6;
-1,16738035010648E-6;
-9,34568086691974E-7;
-6,93290288059173E-7;
2,07611979074414E-7;
1,59310350370276E-6;
2,71160049689541E-6;
3,0056379033375E-6;
2,68027907994639E-6;
2,5417750994589E-6;
3,22931860364557E-6;
4,50978346591312E-6;
5,28280614620758E-6;
4,36419936536307E-6;
1,45806027682506E-6;
-2,46147673046654E-6;
-5,69572452174171E-6;
-6,90992385008476E-6;
-5,95897676393386E-6;
-3,85613301001785E-6;
-1,95704276160552E-6;
-1,01700855944732E-6;
-8,26624019685272E-7;
-6,2757826601974E-7;
1,16469282329053E-7;
1,26171489885253E-6;
2,19007004313377E-6;
2,44292614554716E-6;
2,18777589987259E-6;
2,08537365095957E-6;
2,6596733004493E-6;
3,7203805668402E-6;
4,36756451707813E-6;
3,63236070931525E-6;
1,27071178824873E-6;
-1,92557565861697E-6;
-4,57366943372405E-6;
-5,58579690716985E-6;
-4,84039499963374E-6;
-3,15635505904496E-6;
-1,63096795110402E-6;
-8,7618580188647E-7;
-7,24089271438252E-7;
-5,6329987709296E-7;
3,8646262494609E-8;
9,66168773062311E-7;
1,72186950425331E-6;
1,93653157687833E-6;
1,74378575354312E-6;
1,67303483985797E-6;
2,14417690735281E-6;
3,00551990113775E-6;
3,53793835879553E-6;
2,96684484381328E-6;
1,09514831701833E-6;
-1,44940017101159E-6;
-3,56838702597851E-6;
-4,39655825930561E-6;
-3,83385183797748E-6;
-2,52464918537592E-6;
-1,3341017365027E-6;
-7,45299273178467E-7;
-6,27462812913205E-7;
-5,01043526739689E-7;
-2,67917259285191E-8;
7,04999899809049E-7;
1,3051611066416E-6;
1,48465989336607E-6;
1,34685894486163E-6;
1,30355185215734E-6;
1,68144634934341E-6;
2,36334504774285E-6;
2,79188689415263E-6;
2,36635054251091E-6;
9,31851347474907E-7;
-1,0302418278072E-6;
-2,67549634328954E-6;
-3,33748662476385E-6;
-2,93565431090646E-6;
-1,95902431522972E-6;
-1,065920441859E-6;
-6,24551810182976E-7;
-5,37098843302052E-7;
-4,41295926970492E-7;
-8,08332800420812E-8;
4,76461980543157E-7;
9,37647210893163E-7;
1,08501034879568E-6;
9,9509789653419E-7;
9,75294900393061E-7;
1,26956383436986E-6;
1,79126537804965E-6;
2,12651516280126E-6;
1,82886933750566E-6;
7,81068541281791E-7;
-6,64984463941127E-7;
-1,88968273621151E-6;
-2,40273615363211E-6;
-2,14114882572474E-6;
-1,45687276584214E-6;
-8,25584954686788E-7;
-5,13982410173604E-7;
-4,53223767512765E-7;
-3,84445845250587E-7;
-1,24485911597098E-7;
2,78605387847004E-7;
6,16680053976084E-7;
7,3489340855775E-7;
6,86256068897231E-7;
6,8630883026117E-7;
9,0620001146401E-7;
1,28610758767629E-6;
1,53825353144323E-6;
1,35183998931528E-6;
6,42859557719796E-7;
-3,50208244964176E-7;
-1,20493040693085E-6;
-1,58560947688037E-6;
-1,44494261686204E-6;
-1,01510213512812E-6;
-6,12004224563452E-7;
-4,13492874047088E-7;
-3,75946140128757E-7;
-3,30793421066003E-7;
-1,58761389512107E-7;
1,09340970870641E-7;
3,39359519457245E-7;
4,31333846221224E-7;
4,17827944668776E-7;
4,34384000464067E-7;
5,88701084945129E-7;
8,44258042390746E-7;
1,02301227203484E-6;
9,3225758148497E-7;
5,17110601430063E-7;
-8,23028811045982E-8;
-6,14726828100994E-7;
-8,78791737503438E-7;
-8,41099418122268E-7;
-6,30257598121463E-7;
-4,23892362920775E-7;
-3,22869355759239E-7;
-3,05279534564963E-7;
-2,80562510477715E-7;
-1,8465662356351E-7;
-3,35074774706103E-8;
1,02614325686261E-7;
1,71161991388599E-7;
1,87130445757321E-7;
2,17136292322145E-7;
3,14192122450658E-7;
4,6178631522738E-7;
5,7632561666932E-7;
5,66802615322784E-7;
4,03572231645087E-7;
1,42450939195149E-7;
-1,12241675385526E-7;
-2,74559896910175E-7;
-3,23315048266625E-7;
-2,98630802430485E-7;
-2,59811160929148E-7;
-2,41801059617114E-7;
-2,41153043575231E-7;
-2,33899802227644E-7;
-2,0313908443486E-7;
-1,52155182222568E-7;
-9,67185035395445E-8;
-4,89100089335025E-8;
-8,63418831455176E-9;
3,20680624237728E-8;
7,96417265343059E-8;
1,34549375309938E-7;
1,93479764294728E-7;
2,51924430105134E-7;
3,01873822293117E-7;
3,27807777529013E-7;
3,09526771948929E-7;
2,35044022957454E-7;
1,14928244469371E-7;
-1,63523831692204E-8;
-1,18218665508399E-7;
-1,6990226923835E-7;
-1,83420754603825E-7;
-1,90891979627469E-7;
-2,1513920562634E-7;
-2,48815400408498E-7;
-2,6184122091979E-7;
-2,32220406518588E-7;
-1,72312560539977E-7;
-1,23375381315689E-7;
-1,18056471586672E-7;
-1,41713238842402E-7;
-1,30390207194337E-7;
-1,60634372537253E-8;
2,11551329946686E-7;
4,77493475922003E-7;
6,57615310693391E-7;
6,5805090501035E-7;
4,80240100909675E-7;
2,20523885924303E-7;
2,49106891821789E-9;
-1,06723317661376E-7;
-1,31881012136697E-7;
-1,51565863521887E-7;
-2,21536240904565E-7;
-3,25667470501544E-7;
-3,95930019800896E-7;
-3,82099963551911E-7;
-3,06756962254651E-7;
-2,5176289267365E-7;
-2,82039819816983E-7;
-3,71301133156734E-7;
-4,00197175503152E-7;
-2,40917832921759E-7;
1,32062550972948E-7;
5,95157356640258E-7;
9,38988250179286E-7;
1,00244237320644E-6;
7,79206153208399E-7;
4,15955547777664E-7;
1,03964268043248E-7;
-5,17682633546746E-8;
-8,62787164576839E-8;
-1,15899101867239E-7;
-2,23159751569752E-7;
-3,84832711137076E-7;
-5,02102874438245E-7;
-5,0182175716363E-7;
-4,14778885366503E-7;
-3,55637487212899E-7;
-4,15416141051819E-7;
-5,58482213380689E-7;
-6,20827374268197E-7;
-4,26393284780628E-7;
6,28091701646243E-8;
6,84327099434836E-7;
1,16045022568038E-6;
1,27604101651421E-6;
1,01829920893756E-6;
5,73849531953044E-7;
1,87846695456023E-7;
-4,51132994952566E-9;
-4,63241560481668E-8;
-8,38253430094089E-8;
-2,20774503019386E-7;
-4,28345354516105E-7;
-5,83376602076267E-7;
-5,94568753596206E-7;
-4,99116629526327E-7;
-4,37482409338667E-7;
-5,21232940695377E-7;
-7,07443107002827E-7;
-7,97081667714265E-7;
-5,76196601071908E-7;
3,15137350170664E-9;
7,48371635900582E-7;
1,32856739165343E-6;
1,48642136981745E-6;
1,20380264399934E-6;
6,98021240088531E-7;
2,55770444915023E-7;
3,55944479830436E-8;
-1,16973826249581E-8;
-5,52448788707699E-8;
-2,1508615885129E-7;
-4,5813919146447E-7;
-6,42640682244235E-7;
-6,63395225342075E-7;
-5,62406199608791E-7;
-4,9969518975958E-7;
-6,02433424373249E-7;
-8,22233256337416E-7;
-9,33612000091583E-7;
-6,93940527962999E-7;
-4,75770831599397E-8;
7,90488074527873E-7;
1,44961565169801E-6;
1,64084120970054E-6;
1,34175484385998E-6;
7,92148447075764E-7;
3,09326654505421E-7;
6,91106666085926E-8;
1,79436366976762E-8;
-3,00284160211893E-8;
-2,06739082760154E-7;
-4,76036719553965E-7;
-6,82635168803075E-7;
-7,11211642282296E-7;
-6,07161309933582E-7;
-5,44566455851127E-7;
-6,61841071524409E-7;
-9,06738153763519E-7;
-1,03488599733325E-6;
-7,8311000042577E-7;
-9,00607675031203E-8;
8,13672180456102E-7;
1,52953169112191E-6;
1,74618668793765E-6;
1,4378953415055E-6;
8,59743467497382E-7;
3,5005723665971E-7;
9,65955688461563E-8;
4,29535560619684E-8;
-8,01736435215083E-9;
-1,96311199708052E-7;
-4,83738449421642E-7;
-7,05936486915796E-7;
-7,40752190608305E-7;
-6,35751690839922E-7;
-5,74266476934085E-7;
-7,02133250064378E-7;
-9,64648824074822E-7;
-1,10514906372833E-6;
-8,47028227024296E-7;
-1,24986272444632E-7;
8,20707756541499E-7;
1,5738817091945E-6;
1,80893428934428E-6;
1,4976338128109E-6;
9,0412776393807E-7;
3,79433865178831E-7;
1,18605452378922E-7;
6,36948599448509E-8;
1,09592402542968E-8;
-1,84322927954944E-7;
-4,82817359569952E-7;
-7,14941983096315E-7;
-7,54578309373881E-7;
-6,50400780079165E-7;
-5,90832782735847E-7;
-7,25831003019328E-7;
-9,99437598670193E-7;
-1,14840529541827E-6;
-8,88842662832393E-7;
-1,53033957608225E-7;
8,14161656326547E-7;
1,58784467784191E-6;
1,83512472954445E-6;
1,52602997659284E-6;
9,28421421729074E-7;
3,98852125078189E-7;
1,35681206773588E-7;
8,05290425281426E-8;
2,70917484335506E-8;
-1,7122713926403E-7;
-4,74715955552746E-7;
-7,11869965539177E-7;
-7,55060462809092E-7;
-6,53170824845021E-7;
-5,96159510519718E-7;
-7,35277498616487E-7;
-1,01434114118789E-6;
-1,16839257514222E-6;
-9,11506886827476E-7;
-1,74871492832855E-7;
7,96384563613695E-7;
1,57619692058739E-6;
1,83034385097718E-6;
1,52776781211521E-6;
9,35523668403076E-7;
4,09627645989116E-7;
1,48349969397566E-7;
9,38168350563235E-8;
4,05746319717306E-8;
-1,57427177760261E-7;
-4,60746640661767E-7;
-6,98749712069466E-7;
-7,44375325738681E-7;
-6,4595873243587E-7;
-5,91995464106545E-7;
-7,3264785567036E-7;
-1,01236434660554E-6;
-1,1685785404365E-6;
-9,17768079621514E-7;
-1,91148863305509E-7;
7,69501997635646E-7;
1,54330313233812E-6;
1,79971519203702E-6;
1,50715961522645E-6;
9,28112199643146E-7;
4,12984734801568E-7;
1,57115312578828E-7;
1,03913207842142E-7;
5,16165315713401E-8;
-1,43266686694923E-7;
-4,42095369829044E-7;
-6,77428072519896E-7;
-7,24507441422511E-7;
-6,30500024445685E-7;
-5,79945435623379E-7;
-7,19934750436201E-7;
-9,96262140931144E-7;
-1,15215168727449E-6;
-9,10163877230957E-7;
-2,02489842752077E-7;
7,35430197076269E-7;
1,49313211714785E-6;
1,74790047921672E-6;
1,46813417195467E-6;
9,0863828258853E-7;
4,10052905843646E-7;
1,62455308375157E-7;
1,11160089014134E-7;
6,04187252025284E-8;
-1,29040531888387E-7;
-4,19817064890038E-7;
-6,49569338152124E-7;
-6,97253429145637E-7;
-6,08364688493814E-7;
-5,61465316660132E-7;
-6,9895263237434E-7;
-9,68546097134763E-7;
-1,12202603797298E-6;
-8,91022324623106E-7;
-2,0948766991193E-7;
6,95872572359626E-7;
1,42925116611213E-6;
1,67911335209426E-6;
1,41425192223572E-6;
8,79332274992687E-7;
4,01875777179648E-7;
1,64821389751523E-7;
1,15885910980254E-7;
6,71918925099528E-8;
-1,14993522330423E-7;
-3,94855393662522E-7;
-6,16661430305763E-7;
-6,64222780837444E-7;
-5,80966778445255E-7;
-5,37865501886393E-7;
-6,71342759838636E-7;
-9,31490558650733E-7;
-1,08083417453506E-6;
-8,62456241495047E-7;
-2,12703380236859E-7;
6,52335859347957E-7;
1,35484513905593E-6;
1,59712505766852E-6;
1,34870532666926E-6;
8,42198072194085E-7;
3,89400946629466E-7;
1,64634356017117E-7;
1,18400501107961E-7;
7,21357691375573E-8;
-1,01329307255335E-7;
-3,68029684398198E-7;
-5,80020282829162E-7;
-6,26845290117301E-7;
-5,4956354749991E-7;
-5,10321588357874E-7;
-6,3857365537189E-7;
-8,87130740645625E-7;
-1,0309446785947E-6;
-8,26375332070698E-7;
-2,12662331870448E-7;
6,06137921092946E-7;
1,27273118075143E-6;
1,50527999376769E-6;
1,27433758750319E-6;
7,99034009740092E-7;
3,73484528032869E-7;
1,62287662591628E-7;
1,19002718419311E-7;
7,54474378743983E-8;
-8,82124149112843E-8;
-3,4005842876724E-7;
-5,40803584254846E-7;
-5,86382240694382E-7;
-5,15267431314984E-7;
-4,79871599774515E-7;
-6,01951751122761E-7;
-8,37281998203971E-7;
-9,74467865855524E-7;
-7,8448725050302E-7;
-2,09854673567769E-7;
5,58415657059226E-7;
1,18537694710111E-6;
1,40652391589104E-6;
1,19365884602375E-6;
7,51430125969329E-7;
3,54895889576696E-7;
1,58140394004817E-7;
1,1796512065233E-7;
7,73194968292703E-8;
-7,57669404047772E-8;
-3,11553737038959E-7;
-5,00014785276437E-7;
-5,43932849749826E-7;
-4,79050345479509E-7;
-4,47426957805922E-7;
-5,62623733183187E-7;
-7,83541554057479E-7;
-9,13267182940392E-7;
-7,38310528519175E-7;
-2,04734146226059E-7;
5,1014488844576E-7;
1,09492797849123E-6;
1,30342145004378E-6;
1,10885776056431E-6;
7,00785828993147E-7;
3,34318654001936E-7;
1,52521534067926E-7;
1,15547403565832E-7;
7,79329699607164E-8;
-6,40893080398221E-8;
-2,83038016099821E-7;
-4,58518659848845E-7;
-5,00444778705586E-7;
-4,41754243300419E-7;
-4,1378311762982E-7;
-5,21594516338551E-7;
-7,27306163559731E-7;
-8,48970743983693E-7;
-6,89176637497149E-7;
-1,97714753038389E-7;
4,62144319705783E-7;
1,00321640394368E-6;
1,19818267762514E-6;
1,02183239496669E-6;
6,48312864351272E-7;
3,12354964446005E-7;
1,45734124371583E-7;
1,119858069652E-7;
7,74593471882021E-8;
-5,32458679565859E-8;
-2,5494370260557E-7;
-4,17044550139655E-7;
-4,56727143273871E-7;
-4,04098408378207E-7;
-3,79620033965498E-7;
-4,79725890400285E-7;
-6,69779676107748E-7;
-7,82991063299521E-7;
-6,38248528527753E-7;
-1,89172493934673E-7;
4,15096393520121E-7;
9,1179649437034E-7;
1,09268547026808E-6;
9,34199272930636E-7;
5,95059413292947E-7;
2,89532801403695E-7;
1,38042281998114E-7;
1,07494893038819E-7;
7,60614515041777E-8;
-4,32806335345372E-8;
-2,27630529321176E-7;
-3,76203722577827E-7;
-4,13459163245105E-7;
-3,66692684393074E-7;
-3,45518304176842E-7;
-4,37756905611819E-7;
-6,11992404459933E-7;
-7,16535617057024E-7;
-5,86526700949322E-7;
-1,79448009886244E-7;
3,6955479615315E-7;
8,21966306787187E-7;
9,88507898675504E-7;
8,47321539840652E-7;
5,4191053738755E-7;
2,66305496030146E-7;
1,296882297438E-7;
1,02273824337495E-7;
7,38909650208353E-8;
-3,4213244096253E-8;
-2,01381346674127E-7;
-3,36498152995632E-7;
-3,71202870251176E-7;
-3,30039315195406E-7;
-3,11959646464113E-7;
-3,96302989894179E-7;
-5,54809584805323E-7;
-6,50623470644812E-7;
-5,3486263129334E-7;
-1,68847376749321E-7;
3,25956399257239E-7;
7,34780381280914E-7;
8,86949972372623E-7;
7,62333691558962E-7;
4,89608521977408E-7;
2,43060573330105E-7;
1,20885113169409E-7;
9,64972990036699E-8;
7,10838344256435E-8;
-2,60453574571546E-8;
-1,76418984756264E-7;
-2,98329344979703E-7;
-3,30412034332774E-7;
-2,94552803806145E-7;
-2,79341259937955E-7;
-3,55876859284E-7;
-4,98952302092757E-7;
-5,86102271751717E-7;
-4,83972491748674E-7;
-1,5764111164901E-7;
2,84643562953256E-7;
6,51089557318549E-7;
7,89060143898207E-7;
6,80155400076095E-7;
4,38765983050971E-7;
2,20125173590893E-7;
1,11817797153584E-7;
9,03254754770946E-8;
6,77704818509006E-8;
-1,87659635039733E-8;
-1,52909680321553E-7;
-2,6201090654896E-7;
-2,91446990043494E-7;
-2,60558838073591E-7;
-2,47982219331239E-7;
-3,16891908643715E-7;
-4,45001241462883E-7;
-5,23664510344363E-7;
-4,34444957695915E-7;
-1,46065173320236E-7;
2,45857891372857E-7;
5,71548492699844E-7;
6,95666520198259E-7;
6,01514152180972E-7;
3,89870592067436E-7;
1,97770206120396E-7;
1,0264689323844E-7;
8,3896230749825E-8;
6,40664860393246E-8;
-1,23500247992987E-8;
-1,30969810665414E-7;
-2,27776234709059E-7;
-2,5458075119235E-7;
-2,28310304456022E-7;
-2,18131098447265E-7;
-2,79673788159993E-7;
-3,93419549264852E-7;
-4,63858845324139E-7;
-3,86755265326413E-7;
-1,34328260367066E-7;
2,09771278117838E-7;
4,96646763888618E-7;
6,07392835030841E-7;
5,26974199391514E-7;
3,43307208286679E-7;
1,76214260976702E-7;
9,3512599678908E-8;
7,73324492565995E-8;
6,00750698099891E-8;
-6,76222032818161E-9;
-1,10672053451292E-7;
-1,95790418491863E-7;
-2,20010748859463E-7;
-1,97992464443861E-7;
-1,8997617142434E-7;
-2,44469714077645E-7;
-3,44557878555928E-7;
-4,07111718262615E-7;
-3,41278641649691E-7;
-1,22606388576878E-7;
1,76481245459139E-7;
4,26723624270422E-7;
5,24686951230828E-7;
4,56942113464654E-7;
2,99365845772124E-7;
1,55631728957903E-7;
8,45287471698827E-8;
7,07406542511204E-8;
5,58897730480395E-8;
-1,95996828309214E-9;
-9,20533898755334E-8;
-1,66158968344461E-7;
-1,87868221255962E-7;
-1,69733639324306E-7;
-1,63648827225244E-7;
-2,11459513265311E-7;
-2,98676565060682E-7;
-3,53733373023379E-7;
-2,98297997384846E-7;
-1,11052423665998E-7;
1,46028402628024E-7;
3,61988762917034E-7;
4,47844210616065E-7;
3,91698657177444E-7;
2,58249092309637E-7;
1,36153678713352E-7;
7,57939211512157E-8;
6,4210958385243E-8;
5,15915786244874E-8;
2,10561035301596E-9;
-7,51166066372634E-8;
-1,38933193747192E-7;
-1,58229629877563E-7;
-1,43609478151408E-7;
-1,39231661201251E-7;
-1,80761072434441E-7;
-2,55946754133656E-7;
-3,03939077252446E-7;
-2,58016655888517E-7;
-9,97908441751221E-8;
1,18404426671197E-7;
3,02545398553075E-7;
3,77027856440045E-7;
3,31406530389599E-7;
2,20086680470329E-7;
1,17875614367183E-7;
6,73851467365933E-8;
5,78188511061136E-8;
4,72547022814717E-8;
5,48736540437091E-9;
-5,98431920759987E-8;
-1,1412205078247E-7;
-1,31118511711643E-7;
-1,19652259594243E-7;
-1,16768450563576E-7;
-1,52441265245996E-7;
-2,1647120423909E-7;
-2,5785857998392E-7;
-2,20566855608781E-7;
-8,89265656222382E-8;
9,35598386537481E-8;
2,48398748047497E-7;
3,1228027225359E-7;
2,76130875825136E-7;
1,84948861688637E-7;
1,008627221351E-7;
5,93668870004916E-8;
5,16293665514914E-8;
4,2939287959576E-8;
8,23933831069405E-9;
-4,61877900690483E-8;
-9,16953891737231E-8;
-1,0652024853418E-7;
-9,78585005091052E-8;
-9,62659455371444E-8;
-1,26519640953669E-7;
-1,80285471979395E-7;
-2,1554590455698E-7;
-1,8601962820986E-7;
-7,85425554426874E-8;
7,14088887081669E-8;
1,99477433158889E-7;
2,53557559449509E-7;
2,25856583168216E-7;
1,5284798620199E-7;
8,51492979164863E-8;
5,17845589538732E-8;
4,56918274090282E-8;
3,86991418601509E-8;
1,04204887618994E-8;
-3,40914942571759E-8;
-7,15965595551818E-8;
-8,43846516630026E-8;
-7,81928069927476E-8;
-7,77028715005604E-8;
-1,02980787252227E-7;
-1,47373401214967E-7;
-1,76994761643766E-7;
-1,54396371623563E-7;
-6,86997889562154E-8;
5,18425613967598E-8;
1,55642046908847E-7;
2,00728155635991E-7;
1,80492851033357E-7;
1,23751377746005E-7;
7,07499263687696E-8;
4,46738988370272E-8;
4,00462983877782E-8;
3,45772577322714E-8;
1,20858771399707E-8;
-2,34789933509461E-8;
-5,37376798356019E-8;
-6,46328832833518E-8;
-6,05961853604346E-8;
-6,10312556173412E-8;
-8,17766190467857E-8;
-1,17678699003527E-7;
-1,42144650297006E-7;
-1,25671334319787E-7;
-5,9447800279286E-8;
3,47293540385822E-8;
1,16702046583116E-7;
1,53600106636154E-7;
1,39900844199809E-7;
9,75904635461728E-8;
5,76559842927648E-8;
3,80572305511889E-8;
3,47246135563762E-8;
3,061108096774E-8;
1,328958627373E-8;
-1,42661774751562E-8;
-3,80172420198959E-8;
-4,71663890999719E-8;
-4,49866252510523E-8;
-4,61870517885312E-8;
-6,28332250389692E-8;
-9,11040561216496E-8;
-1,10896970697601E-7;
-9,97832100732242E-8;
-5,08186686475597E-8;
1,99211099603327E-8;
8,24297084123597E-8;
1,11928024003135E-7;
1,03888794641434E-7;
7,4263900527258E-8;
4,58413188562915E-8;
3,19482035346636E-8;
2,97468852053233E-8;
2,68285710228418E-8;
1,40887608881632E-8;
-6,36268650269427E-9;
-2,43174547406691E-8;
-3,18658605033426E-8;
-3,12694686866318E-8;
-3,30877626220784E-8;
-4,60544403343826E-8;
-6,75232597459293E-8;
-8,31126412567982E-8;
-7,6640780912195E-8;
-4,28302773950951E-8;
7,26231272066399E-9;
5,25642870057045E-8;
7,54292167921519E-8;
7,2231140684051E-8;
5,3646058407745E-8;
3,52672319612807E-8;
2,63493904387768E-8;
2,51282792833508E-8;
2,32535842667417E-8;
1,45353100050478E-8;
3,31235190571438E-10;
-1,25086869934859E-8;
-1,86026944457971E-8;
-1,93318769788095E-8;
-2,16381009037359E-8;
-3,13351800239012E-8;
-4,67900371006611E-8;
-5,86265027885608E-8;
-5,61307224717745E-8;
-3,54930856973938E-8;
-3,4122630167089E-9;
2,68203235343343E-8;
4,37886245877354E-8;
4,46776888694372E-8;
3,55950699976717E-8;
2,58865000821009E-8;
2,12601954397862E-8;
2,08747876383304E-8;
1,99017730663194E-8;
1,4676949957317E-8;
5,9099522395961E-9;
-2,4546573113582E-9;
-7,23732075072431E-9;
-9,06274720640537E-9;
-1,17364177222173E-8;
-1,8548567830977E-8;
-2,87404402797485E-8;
-3,72563435690819E-8;
-3,81165209395699E-8;
-2,88025634271481E-8;
-1,22694883563109E-8;
4,90176307364172E-9;
1,66764394576971E-8;
2,09613254601866E-8;
1,99543086284807E-8;
1,76359118179356E-8;
1,66671699966697E-8;
1,69888189562959E-8;
1,67840060529156E-8;
1,45608033858109E-8;
1,04769673160208E-8;
5,9831994969715E-9;
2,37294370206758E-9;
-3,36721040671325E-10;
-3,2750707448719E-9;
-7,56776463164454E-9;
-1,31983203056938E-8;
-1,88028393378734E-8;
-2,24529047303248E-8;
-2,2751100771617E-8;
-1,94749348379194E-8;
-1,34966666822017E-8;
-6,25480501973601E-9;
7,98745298916479E-10;
6,55687054695377E-9;
1,04543144173609E-8;
1,25580144950701E-8;
1,34646562766765E-8;
1,39064097004236E-8;
1,42287421752653E-8;
1,41278241635233E-8;
1,2944093843614E-8;
1,03744165461489E-8;
6,97080766850564E-9;
3,85840222332565E-9;
1,74314162539119E-9;
2,01125163260379E-11;
-3,05784972200944E-9;
-8,98340641969516E-9;
-1,73196257184457E-8;
-2,51924366408436E-8;
-2,86812973141307E-8;
-2,53521195837262E-8;
-1,60963912377818E-8;
-4,76756882938068E-9;
4,27074641786877E-9;
8,91428187072905E-9;
1,0295924030681E-8;
1,1271279520358E-8;
1,37233105374707E-8;
1,69607337994188E-8;
1,85696032634763E-8;
1,69130347226041E-8;
1,29822582234552E-8;
9,77724536792383E-9;
9,5216778968059E-9;
1,11014115461991E-8;
1,01925972895228E-8;
2,45474764689565E-9;
-1,24874822300483E-8;
-2,95824893374694E-8;
-4,095533930843E-8;
-4,09625070851153E-8;
-3,00109596970094E-8;
-1,41931044137878E-8;
-9,87263029456545E-10;
5,71097265351315E-9;
7,46958299936033E-9;
8,87867383329575E-9;
1,30775835939319E-8;
1,90658090131715E-8;
2,29947314957862E-8;
2,21329312819826E-8;
1,78239435901556E-8;
1,45914789255172E-8;
1,59026561275411E-8;
2,02331949681808E-8;
2,11609561262146E-8;
1,20263763555398E-8;
-8,22545049235073E-9;
-3,27974739290158E-8;
-5,06155993051112E-8;
-5,34293865434836E-8;
-4,12291796280167E-8;
-2,18927980666455E-8;
-5,39562977769519E-9;
2,92548360509976E-9;
4,97281127674613E-9;
6,72352126916618E-9;
1,23252600758362E-8;
2,05314566468015E-8;
2,63507005008477E-8;
2,6172266549968E-8;
2,16140112883467E-8;
1,84111579558489E-8;
2,10208392259813E-8;
2,75997926928979E-8;
3,00615205715156E-8;
1,98967198492672E-8;
-4,50508258385311E-9;
-3,49848691758652E-8;
-5,79495244344808E-8;
-6,30834192704283E-8;
-5,00262736951579E-8;
-2,80326976895375E-8;
-9,02491332595451E-9;
5,29975429422895E-10;
2,78869160711113E-9;
4,79872461735506E-9;
1,1493879957107E-8;
2,1443313625856E-8;
2,8764743887885E-8;
2,91648922081657E-8;
2,44698100870055E-8;
2,13439192180861E-8;
2,50100503012291E-8;
3,33824074266371E-8;
3,70991616471234E-8;
2,62267764938871E-8;
-1,29207197353627E-9;
-3,6278077090425E-8;
-6,32276539566411E-8;
-7,02440379030398E-8;
-5,66707761071821E-8;
-3,27796473516634E-8;
-1,19500045807586E-8;
-1,50215569387007E-9;
8,98632783282576E-10;
3,09708250966498E-9;
1,06122967379491E-8;
2,18776753658614E-8;
3,03549164820621E-8;
3,12392994825865E-8;
2,65026555108587E-8;
2,3490923863105E-8;
2,79923553054693E-8;
3,77525219475966E-8;
4,247528669491E-8;
3,11736840529384E-8;
1,4468746630451E-9;
-3,68078126513067E-8;
-6,67120353906026E-8;
-7,52126999854014E-8;
-6,14149941404565E-8;
-3,62895593798348E-8;
-1,42404672766032E-8;
-3,20079870082628E-9;
-7,17887718637424E-10;
1,60696093158654E-9;
9,70046242404223E-9;
2,19066462245381E-8;
3,12327963592314E-8;
3,25146555308878E-8;
2,78156553917393E-8;
2,49475974579766E-8;
3,00894837086124E-8;
4,08760924907351E-8;
4,63806658623993E-8;
3,48911330085874E-8;
3,74799339782791E-9;
-3,669229086396E-8;
-6,86448001280765E-8;
-7,82760111410434E-8;
-6,44992380457587E-8;
-3,87121089169802E-8;
-1,59677580247246E-8;
-4,59355756479187E-9;
-2,07773285443441E-9;
3,17458213270021E-10;
8,77741012840563E-9;
2,15962000359982E-8;
3,15019937176694E-8;
3,31027266885047E-8;
2,85079783193838E-8;
2,58065960157652E-8;
3,1414685978811E-8;
4,2911191669543E-8;
4,89984232929895E-8;
3,75237704504171E-8;
5,64862287883327E-9;
-3,60395777985229E-8;
-6,92519666516952E-8;
-7,96984774966857E-8;
-6,61505412958421E-8;
-4,01912699325729E-8;
-1,71955659581283E-8;
-5,70906604766568E-9;
-3,20449055907408E-9;
-7,84910149746003E-10;
7,85967837729145E-9;
2,10088516145227E-8;
3,12597484441986E-8;
3,31078856248649E-8;
2,86716811778319E-8;
2,61522186569527E-8;
3,20744025253081E-8;
4,40048566832045E-8;
5,04971003997307E-8;
3,92075526676263E-8;
7,18373885900853E-9;
-3,49479176022735E-8;
-6,87403270585527E-8;
-7,97302485389009E-8;
-6,65766580947376E-8;
-4,08522886330902E-8;
-1,79874948396435E-8;
-6,57505640661917E-9;
-4,1162240294023E-9;
-1,71412707836417E-9;
6,96204147745546E-9;
2,01996731562904E-8;
3,05933592160466E-8;
3,26247172784053E-8;
2,83878516652336E-8;
2,60621706035319E-8;
3,21667022729647E-8;
4,42935464874612E-8;
5,10375836421588E-8;
4,00697776131695E-8;
8,3881555924996E-9;
-3,35057413574782E-8;
-6,73025256776566E-8;
-7,85942707588169E-8;
-6,59714631882429E-8;
-4,08258352099986E-8;
-1,84005190363468E-8;
-7,21780777460047E-9;
-4,83572309338791E-9;
-2,48126120859534E-9;
6,09509180792778E-9;
1,92159163346078E-8;
2,95816527469596E-8;
3,17418742291486E-8;
2,77373487549617E-8;
2,56089800771201E-8;
3,17808350430359E-8;
4,39009341371346E-8;
5,07647536325494E-8;
4,02326844256462E-8;
9,29618074102279E-9;
-3,17958397917641E-8;
-6,51105956475015E-8;
-7,65003906999055E-8;
-6,45104074038026E-8;
-4,02168045851289E-8;
-1,84904472518663E-8;
-7,66358297187138E-9;
-5,38050640141982E-9;
-3,10105486949508E-9;
5,2681751822054E-9;
1,81024017244474E-8;
2,82975092967096E-8;
3,05361274107348E-8;
2,67859247171656E-8;
2,48576792997301E-8;
3,10008033006587E-8;
4,29457548191475E-8;
4,98156874557279E-8;
3,98031375004964E-8;
9,94125309558488E-9;
-2,98845052107486E-8;
-6,23195892095496E-8;
-7,36345918534617E-8;
-6,23553647002941E-8;
-3,91315761176627E-8;
-1,83071743818578E-8;
-7,93625359800749E-9;
-5,76990095982577E-9;
-3,58818257206411E-9;
4,4856210647489E-9;
1,68957989149266E-8;
2,68025632877725E-8;
2,90785360386236E-8;
2,55999943532132E-8;
2,38691865869106E-8;
2,99030021998094E-8;
4,15327034887816E-8;
4,83116168419956E-8;
3,88845344769737E-8;
1,03573555795883E-8;
-2,78361954341118E-8;
-5,90710044919807E-8;
-7,01642145184241E-8;
-5,9648780192704E-8;
-3,76618443032753E-8;
-1,78966187439419E-8;
-8,05951741300356E-9;
-6,02405064911401E-9;
-3,95422243490057E-9;
3,75684618356587E-9;
1,56329542592957E-8;
2,51572891789945E-8;
2,74316882822766E-8;
2,42313153724282E-8;
2,26947090040634E-8;
2,85520759661846E-8;
3,97529382310821E-8;
4,63635801445586E-8;
3,75656721297202E-8;
1,0569772261337E-8;
-2,57041020412892E-8;
-5,54857428760354E-8;
-6,62383605645846E-8;
-5,65204354769105E-8;
-3,58908458852785E-8;
-1,73000882416914E-8;
-8,05411446963285E-9;
-6,15849917541687E-9;
-4,21374383750589E-9;
3,08181815271717E-9;
1,43398585565956E-8;
2,34074473497938E-8;
2,56519397492728E-8;
2,27337751462605E-8;
2,13824415360078E-8;
2,70097776717336E-8;
3,76935526490437E-8;
4,40716992567085E-8;
3,59310056271672E-8;
1,06078563013633E-8;
-2,3535569240678E-8;
-5,16720996572484E-8;
-6,19884909167457E-8;
-5,3083212509698E-8;
-3,38920503491686E-8;
-1,65569747496544E-8;
-7,94091608356795E-9;
-6,18885736042535E-9;
-4,37833814029861E-9;
2,46150267030394E-9;
1,30418602645163E-8;
2,15984596633543E-8;
2,37853681497926E-8;
2,11479968567548E-8;
1,9974447947304E-8;
2,53295298264677E-8;
3,54269868575779E-8;
4,15208377640828E-8;
3,40529998221788E-8;
1,04993558385791E-8;
-2,13671179912541E-8;
-4,77230342815013E-8;
-5,75304984605051E-8;
-4,94377457537639E-8;
-3,17317783626432E-8;
-1,57003420938403E-8;
-7,73593879596244E-9;
-6,13281027208578E-9;
-4,46134918062137E-9;
1,9015415546871E-9;
1,17601686376172E-8;
1,97638554634149E-8;
2,18737393261339E-8;
1,95115246138576E-8;
1,85044344223394E-8;
2,35566587264988E-8;
3,30224659572087E-8;
3,87933425707255E-8;
3,19973308625152E-8;
1,02678559986479E-8;
-1,9232398714549E-8;
-4,37201203949547E-8;
-5,29620617251741E-8;
-4,56699799328195E-8;
-2,94656375776356E-8;
-1,47594871429321E-8;
-7,4586290701025E-9;
-6,00274483844207E-9;
-4,47156301195253E-9;
1,39806800731705E-9;
1,05102277259942E-8;
1,79384472611096E-8;
1,99543094994204E-8;
1,78558881764363E-8;
1,70066487379068E-8;
2,17353635788954E-8;
3,0534052619793E-8;
3,59537653504207E-8;
2,98223010118631E-8;
9,93390763297281E-9;
-1,71594891882451E-8;
-3,97303329661719E-8;
-4,836797463111E-8;
-4,18555255918541E-8;
-2,71455336239612E-8;
-1,37621947660848E-8;
-7,12324705942681E-9;
-5,81246220766933E-9;
-4,42141817213724E-9;
9,50515455992601E-10;
9,30707393780543E-9;
1,61458195713745E-8;
1,80555566112967E-8;
1,62109107349906E-8;
1,55038293117507E-8;
1,98933513039008E-8;
2,80118807639126E-8;
3,30609910474093E-8;
2,75743583584584E-8;
9,51767972182346E-9;
-1,51681794861559E-8;
-3,58094212920224E-8;
-4,38194141957239E-8;
-3,80560907869402E-8;
-2,48103852727537E-8;
-1,27306978832815E-8;
-6,74251216571079E-9;
-5,57180896003972E-9;
-4,32043935299333E-9;
5,56213395397203E-10;
8,16122581539399E-9;
1,44091754606443E-8;
1,62012697413514E-8;
1,45966710963636E-8;
1,4022477751503E-8;
1,80660738464814E-8;
2,5496412803034E-8;
3,01640425710296E-8;
2,53007799146599E-8;
9,03730530541538E-9;
-1,32761558598103E-8;
-3,20040644859937E-8;
-3,93761178525593E-8;
-3,43241430604437E-8;
-2,24988161047498E-8;
-1,16854288066162E-8;
-6,32835467526552E-9;
-5,29413649617752E-9;
-4,17581241572831E-9;
2,16769903549592E-10;
7,08023800074572E-9;
1,27430712665677E-8;
1,44128236235974E-8;
1,3032390766572E-8;
1,25768717809391E-8;
1,62733307050856E-8;
2,30241218104723E-8;
2,73072846336264E-8;
2,30355589992031E-8;
8,51038679184836E-9;
-1,14954799239101E-8;
-2,83516820620185E-8;
-3,50821461476488E-8;
-3,07028596923928E-8;
-2,02390629378697E-8;
-1,06419066843483E-8;
-5,89237715713619E-9;
-4,98774112808896E-9;
-3,99803395797267E-9;
-7,53248060031103E-11;
6,06919963664703E-9;
1,11611469797584E-8;
1,27050381948563E-8;
1,15337008650207E-8;
1,11847624916261E-8;
1,45377047136301E-8;
2,06215394964488E-8;
2,4522008494822E-8;
2,08101214880038E-8;
7,95097756203251E-9;
-9,83430869506265E-9;
-2,48825416264311E-8;
-3,09799961266026E-8;
-2,72261499612169E-8;
-1,80551349173806E-8;
-9,61667439125116E-9;
-5,44359344615602E-9;
-4,66012381564736E-9;
-3,79305718513068E-9;
-3,20911486947461E-10;
5,1327658316407E-9;
9,67386805151996E-9;
1,10893873488228E-8;
1,01090571776719E-8;
9,85614279231395E-9;
1,28741341187155E-8;
1,83124165446568E-8;
2,1837176504163E-8;
1,86476038561252E-8;
7,36979053922986E-9;
-8,2978753441026E-9;
-2,16145040253256E-8;
-2,70959634481344E-8;
-2,39215363100904E-8;
-1,59647036662422E-8;
-8,61913902292794E-9;
-4,99122618206874E-9;
-4,32169434092618E-9;
-3,56897784805234E-9;
-5,23027026654374E-10;
4,27280429111118E-9;
8,28646447033159E-9;
9,57538570702834E-9;
8,77116699323234E-9;
8,60156378201916E-9;
1,12948315203953E-8;
1,61154311789071E-8;
1,92753824705384E-8;
1,6570581671245E-8;
6,77929255055746E-9;
-6,89019621655137E-9;
-1,85638183959514E-8;
-2,34510925130885E-8;
-2,08091411682472E-8;
-1,39844135245815E-8;
-7,66053200749061E-9;
-4,54096426733868E-9;
-3,97484998713693E-9;
-3,33031668677747E-9;
-6,86719413579685E-10;
3,49076732700089E-9;
7,00463947002318E-9;
8,16857671633707E-9;
7,52291991749019E-9;
7,42574624811214E-9;
9,81014809028329E-9;
1,40440383970589E-8;
1,68523767115184E-8;
1,45918908801752E-8;
6,18839066854523E-9;
-5,60980897859577E-9;
-1,57407948616258E-8;
-2,00588189000666E-8;
-1,79010662293544E-8;
-1,21239917257611E-8;
-6,74631789059111E-9;
-4,09820046691687E-9;
-3,6292672645275E-9;
-3,08412753873818E-9;
-8,13431718217183E-10;
2,78437154481924E-9;
5,82845573202928E-9;
6,8716834482718E-9;
6,36775895431924E-9;
6,33288746840237E-9;
8,42334964147842E-9;
1,21052004013123E-8;
1,45812799922536E-8;
1,27269065580086E-8;
5,60648708222533E-9;
-4,45460056839239E-9;
-1,3148295901214E-8;
-1,69281422387492E-8;
-1,52069795493691E-8;
-1,03921906611581E-8;
-5,88470573760002E-9;
-3,66799514672241E-9;
-3,28693010049585E-9;
-2,83318206813268E-9;
-9,09412065940215E-10;
2,15068076500196E-9;
4,75857154116061E-9;
5,68534075046445E-9;
5,30842129992397E-9;
5,32664384648318E-9;
7,14099521545502E-9;
1,03075817810574E-8;
1,24678729273313E-8;
1,09809907801562E-8;
5,03722788572701E-9;
-3,42456822973983E-9;
-1,07872649582255E-8;
-1,40635217127746E-8;
-1,27321466568549E-8;
-8,78943350121117E-9;
-5,07642130317124E-9;
-3,25508868861479E-9;
-2,95245970418264E-9;
-2,58120408602245E-9;
-9,77134124931924E-10;
1,59020567956644E-9;
3,79587747950893E-9;
4,61047298876961E-9;
4,34459064395462E-9;
4,40586109720504E-9;
5,96393664813431E-9;
8,65438658609715E-9;
1,05192790488559E-8;
9,36096395297624E-9;
4,48892138441792E-9;
-2,51143102061127E-9;
-8,6546989829544E-9;
-1,14599389047245E-8;
-1,04745807932102E-8;
-7,32125098066901E-9;
-4,32718493401539E-9;
-2,86162023370894E-9;
-2,62960456221087E-9;
-2,33484728344879E-9;
-1,0190840371614E-9;
1,09748616895727E-9;
2,93294605274024E-9;
3,64328295019883E-9;
3,4735469078626E-9;
3,57153332713495E-9;
4,89218456823796E-9;
7,14257652298869E-9;
8,73333944560846E-9;
7,8679444295185E-9;
3,96319323434259E-9;
-1,71173149519321E-9;
-6,74395190500352E-9;
-9,11634141157763E-9;
-8,4344225475042E-9;
-5,98500958710841E-9;
-3,63552212659715E-9;
-2,4897595663327E-9;
-2,32019600018638E-9;
-2,09203912673621E-9;
-1,03828903278809E-9;
6,69547219821843E-10;
2,16915938751602E-9;
2,78068890677609E-9;
2,69461611966559E-9;
2,82103743437515E-9;
3,9222722202294E-9;
5,77457888350704E-9;
7,11386656502585E-9;
6,50376271130116E-9;
3,46618982223353E-9;
-1,01715339086882E-9;
-5,04752840330358E-9;
-7,02004218121032E-9;
-6,60213272040142E-9;
-4,77912482768068E-9;
-3,00345538471382E-9;
-2,14287652162846E-9;
-2,02778627767186E-9;
-1,85970265088472E-9;
-1,04007305153431E-9;
3,02013957699331E-10;
1,49805358913546E-9;
2,01864471096609E-9;
2,00279012038508E-9;
2,15079928769414E-9;
3,05435696540823E-9;
4,54460592659441E-9;
5,65266677374104E-9;
5,26702628924716E-9;
2,99873314795411E-9;
-4,22082548721972E-10;
-3,55461583732623E-9;
-5,16432136423518E-9;
-4,97256423527944E-9;
-3,700373723763E-9;
-2,42969245582285E-9;
-1,81899556946264E-9;
-1,75188094145915E-9;
-1,63613630121636E-9;
-1,02546666078125E-9;
-9,34111515128512E-12;
9,15558136581867E-10;
1,3507157480479E-9;
1,39517477715464E-9;
1,55941230831793E-9;
2,28158066674438E-9;
3,44830189129656E-9;
4,34739532219395E-9;
4,15350194695062E-9;
2,56236960092547E-9;
8,08428451842665E-11;
-2,25395271584184E-9;
-3,53662885358336E-9;
-3,53672426865286E-9;
-2,74194106841854E-9;
-1,9130353817496E-9;
-1,52141648757986E-9;
-1,49612933043773E-9;
-1,42595309104124E-9;
-9,97291279065073E-10;
-2,70205708247937E-10;
4,14016012884327E-10;
7,73752055073687E-10;
8,66049131909061E-10;
1,04096459937846E-9;
1,60267873308631E-9;
2,47929106263931E-9;
3,19028395094335E-9;
3,16136912524839E-9;
2,15907656858995E-9;
4,99598549173287E-10;
-1,13348622741258E-9;
-2,12323634768962E-9;
-2,28413166304935E-9;
-1,90119125260846E-9;
-1,45329296157111E-9;
-1,24929240139129E-9;
-1,2572436509399E-9;
-1,22701780421654E-9;
-9,58358120180284E-10;
-4,83148986089692E-10;
-1,0997310356207E-11;
2,79040838643389E-10;
4,09728459057145E-10;
5,91140427711778E-10;
1,0106513940519E-9;
1,63281555826685E-9;
2,17489591864275E-9;
2,28299343578342E-9;
1,78920469948309E-9;
8,41641437879949E-10;
-1,80552039398255E-10;
-9,09338878947819E-10;
-1,20044731408283E-9;
-1,16721769695906E-9;
-1,04519824928138E-9;
-1,00151428994849E-9;
-1,03868273779684E-9;
-1,04231305053157E-9;
-9,11540467167459E-10;
-6,53323096606112E-10;
-3,65120640296726E-10;
-1,3893840966044E-10;
2,33607709077407E-11;
2,06641965331431E-10;
4,99328498010962E-10;
8,99827198720937E-10;
1,29211476573232E-9;
1,51252773597317E-9;
1,45129014919221E-9;
1,11509886836407E-9;
6,19020877439658E-10;
1,18827770667021E-10;
-2,76415160409366E-10;
-5,36309388458197E-10;
-6,88397847350111E-10;
-7,80289978603877E-10;
-8,40434162172032E-10;
-8,71172816945357E-10;
-8,56760582372759E-10;
-7,84031688199358E-10;
-6,56113102318514E-10;
-4,8647176706405E-10;
-2,99871449732648E-10;
-1,17648663137583E-10;
6,38397140914014E-11;
2,71864076392282E-10;
5,33295688761529E-10;
8,44737982585527E-10;
1,14652254040496E-9;
1,326842858142E-9;
1,2804750650486E-9;
9,79132429620368E-10;
5,01202632783008E-10;
-4,13209302606539E-13;
-3,79585755086289E-10;
-5,81658264040355E-10;
-6,60722168831561E-10;
-7,14335520719002E-10;
-7,98789631339163E-10;
-8,84335365860277E-10;
-8,898674060636E-10;
-7,69672328555404E-10;
-5,68013319857748E-10;
-3,89535960882558E-10;
-3,02297044369808E-10;
-2,58720239990572E-10;
-1,11141686485352E-10;
2,72675097718201E-10;
8,72242669975648E-10;
1,4810598015989E-9;
1,8127508373131E-9;
1,68367202669425E-9;
1,14523579002543E-9;
4,50642727237424E-10;
-1,12548278348577E-10;
-4,06112550735475E-10;
-5,00279059303593E-10;
-5,7145804258428E-10;
-7,37195518203026E-10;
-9,52891689077633E-10;
-1,07102483496206E-9;
-9,95429384749394E-10;
-7,83556052920428E-10;
-6,10726065008068E-10;
-6,0417839650624E-10;
-6,99029106099665E-10;
-6,49755063045372E-10;
-2,11752256374903E-10;
6,29709703549472E-10;
1,58931528044387E-9;
2,2321315053516E-9;
2,24911697257122E-9;
1,66831140179019E-9;
8,21858815356225E-10;
1,11982499181429E-10;
-2,52341129252455E-10;
-3,5734596934563E-10;
-4,43201051627914E-10;
-6,73354680487985E-10;
-9,95794019698709E-10;
-1,2076423608491E-9;
-1,1695940820788E-9;
-9,52037752473667E-10;
-7,85813794813377E-10;
-8,48492854147349E-10;
-1,05983107662988E-9;
-1,09221329695543E-9;
-6,15416729396411E-10;
4,15924170867995E-10;
1,65559466756166E-9;
2,54840197427253E-9;
2,68909995199953E-9;
2,08197191732269E-9;
1,12071451907872E-9;
3,00070003947599E-10;
-1,19261489814869E-10;
-2,31318331233247E-10;
-3,28745954956942E-10;
-6,11185947629471E-10;
-1,01602706789779E-9;
-1,30294436918734E-9;
-1,29727453106475E-9;
-1,07811439896494E-9;
-9,22579767687626E-10;
-1,04216885884375E-9;
-1,34514563953228E-9;
-1,44697179223923E-9;
-9,46885170864675E-10;
2,29396796088798E-10;
1,68588369811821E-9;
2,77565285274993E-9;
3,01881596785461E-9;
2,39802010854699E-9;
1,35409748261159E-9;
4,53725515553301E-10;
-4,26368507848571E-12;
-1,21190180287633E-10;
-2,25793788491263E-10;
-5,4815625497833E-10;
-1,01860798430986E-9;
-1,36365775450507E-9;
-1,38580146968307E-9;
-1,16893750578885E-9;
-1,02234316865511E-9;
-1,18790543309662E-9;
-1,56529967718033E-9;
-1,7245265399945E-9;
-1,21135634018303E-9;
6,79217818340993E-11;
1,68498914023209E-9;
2,92650064690795E-9;
3,25035727799622E-9;
2,62793995495638E-9;
1,53260380348473E-9;
5,76349440003772E-10;
9,19322309029631E-11;
-2,66319573025317E-11;
-1,36503562326516E-10;
-4,862844278792E-10;
-1,00364262080672E-9;
-1,39426113488616E-9;
-1,43995845703119E-9;
-1,22861611779523E-9;
-1,09246300476052E-9;
-1,29357974463548E-9;
-1,72872322188441E-9;
-1,93286344044977E-9;
-1,4156660024557E-9;
-6,98673093076747E-11;
1,65856872935753E-9;
3,00828256455467E-9;
3,39635492123222E-9;
2,78294911678887E-9;
1,65881078644027E-9;
6,70638056654057E-10;
1,72144000065995E-10;
5,37309783322854E-11;
-5,72503444273315E-11;
-4,25368666395348E-10;
-9,77228791852168E-10;
-1,3993699198332E-9;
-1,46268681680197E-9;
-1,25918134919515E-9;
-1,13441201117542E-9;
-1,36346583231356E-9;
-1,83994617753006E-9;
-2,0803990382723E-9;
-1,56768587662714E-9;
-1,83809724688581E-10;
1,61088633633484E-9;
3,03208184438836E-9;
3,46958324810741E-9;
2,87238105678128E-9;
1,74200299081506E-9;
7,41083457548259E-10;
2,37115916380963E-10;
1,21523405158123E-10;
9,63640432910233E-12;
-3,70119180300411E-10;
-9,39903329775689E-10;
-1,38195991186022E-9;
-1,46115361242551E-9;
-1,2670195649763E-9;
-1,15334540739864E-9;
-1,40218173220097E-9;
-1,90768979795492E-9;
-2,17521388286118E-9;
-1,67339661378325E-9;
-2,78340508292504E-10;
1,54780398357656E-9;
3,00861273953552E-9;
3,48055112895474E-9;
2,90572678236233E-9;
1,78610026270416E-9;
7,89640856088633E-10;
2,88631560756164E-10;
1,75704844522325E-10;
6,5306137057153E-11;
-3,16180847764378E-10;
-8,9440314689957E-10;
-1,34806746272114E-9;
-1,43734221116627E-9;
-1,25363766044388E-9;
-1,15225196040764E-9;
-1,41492837579372E-9;
-1,93653477720122E-9;
-2,22277402722876E-9;
-1,73848120656617E-9;
-3,5466137370537E-10;
1,47143168281379E-9;
2,94424084289722E-9;
3,43792287388997E-9;
2,89089783182833E-9;
1,79649872265531E-9;
8,18890370085357E-10;
3,29322119123329E-10;
2,21155858829218E-10;
1,13569331752573E-10;
-2,65690247105169E-10;
-8,42432643343496E-10;
-1,29868327762685E-9;
-1,3971280897034E-9;
-1,22594387469655E-9;
-1,13506817879533E-9;
-1,40478694446605E-9;
-1,93294531672254E-9;
-2,23047920411741E-9;
-1,7685902952398E-9;
-4,14404987656695E-10;
1,38497090090207E-9;
2,84693486978865E-9;
3,35389646577875E-9;
2,8370061041621E-9;
1,77968523192805E-9;
8,32113202652249E-10;
3,57969940744355E-10;
2,55356554221386E-10;
1,51031166989407E-10;
-2,19238874652488E-10;
-7,86623089150839E-10;
-1,23928218360956E-9;
-1,34229494439146E-9;
-1,18398379201116E-9;
-1,10404503197309E-9;
-1,37661022261811E-9;
-1,90214651304266E-9;
-2,20510989296199E-9;
-1,76924186255686E-9;
-4,59487157791067E-10;
1,29123870591833E-9;
2,72395738597155E-9;
3,23373202740136E-9;
2,74988252700801E-9;
1,74108323615489E-9;
8,32050241394945E-10;
3,76984225297301E-10;
2,80819681618133E-10;
1,80598942699164E-10;
-1,77635076341976E-10;
-7,26640332841486E-10;
-1,16929975112162E-9;
-1,27699788582297E-9;
-1,13130490855691E-9;
-1,06227454564512E-9;
-1,33322405048983E-9;
-1,85003005094567E-9;
-2,15444349762897E-9;
-1,74478487333259E-9;
-4,91341524066401E-10;
1,19444170213116E-9;
2,58147940326111E-9;
3,08525831242477E-9;
2,63875014805463E-9;
1,68405811171027E-9;
8,20162243594925E-10;
3,88624019789333E-10;
2,98550892349834E-10;
2,04574784575468E-10;
-1,38904529106092E-10;
-6,66748177346004E-10;
-1,09419818392769E-9;
-1,20322671616396E-9;
-1,07072097916951E-9;
-1,01131290283034E-9;
-1,27665159865844E-9;
-1,77878333932806E-9;
-2,07948007628046E-9;
-1,6993525267582E-9;
-5,11859787821041E-10;
1,09459196742477E-9;
2,42308681791975E-9;
2,91644650138007E-9;
2,50731764007663E-9;
1,61146065292949E-9;
7,98093909430381E-10;
3,93098440199266E-10;
3,09515256827028E-10;
2,2175114077721E-10;
-1,03299064181995E-10;
-6,06549802235176E-10;
-1,01560627017583E-9;
-1,1246123899385E-9;
-1,00483968968237E-9;
-9,53459679143619E-10;
-1,21195349288341E-9;
-1,69512048884648E-9;
-1,98911019353104E-9;
-1,63836891123997E-9;
-5,21304484909913E-10;
9,94029022726379E-10;
2,25525750334943E-9;
2,73439841631144E-9;
2,36044480335584E-9;
1,5270936547826E-9;
7,69566721338213E-10;
3,90815444623477E-10;
3,13986903165666E-10;
2,33786199258797E-10;
-7,21778170509479E-11;
-5,47044638447832E-10;
-9,34564750078832E-10;
-1,04095155124827E-9;
-9,34746141052047E-10;
-8,9310725667664E-10;
-1,14026995764637E-9;
-1,59924712849761E-9;
-1,88203842152376E-9;
-1,56249209687986E-9;
-5,22433388779245E-10;
8,97460866847853E-10;
2,08224206731215E-9;
2,53988443243639E-9;
2,20323753064626E-9;
1,43432812062752E-9;
7,34026534015853E-10;
3,85169360274664E-10;
3,14752801759846E-10;
2,40379198870917E-10;
-4,42902180934198E-11;
-4,87730310967279E-10;
-8,52513179850848E-10;
-9,57255260185973E-10;
-8,62561289761673E-10;
-8,27228145331738E-10;
-1,06275640656495E-9;
-1,49692853915703E-9;
-1,76762449480573E-9;
-1,47747199612497E-9;
-5,16912477163641E-10;
8,00444457328598E-10;
1,90657858471411E-9;
2,34113545683924E-9;
2,04058616928171E-9;
1,33797103503672E-9;
6,9363946591052E-10;
3,7292564353044E-10;
3,10515760896888E-10;
2,43069808442867E-10;
-2,11591079955511E-11;
-4,32058934104384E-10;
-7,70990401237382E-10;
-8,72157153780829E-10;
-7,89132177473582E-10;
-7,60796569670929E-10;
-9,83346039311081E-10;
-1,38970620000155E-9;
-1,64590381097532E-9;
-1,38535646015696E-9;
-5,04705886095724E-10;
7,08638868593744E-10;
1,73154735781834E-9;
2,14080992680167E-9;
1,87443824618824E-9;
1,23654679900286E-9;
6,51382611356259E-10;
3,59461186244305E-10;
3,01654435469629E-10;
2,40864817964794E-10;
-7,0662580214046E-13;
-3,78953338470109E-10;
-6,92423744525245E-10;
-7,88785126137773E-10;
-7,16550342115114E-10;
-6,94814620212321E-10;
-9,02398963050852E-10;
-1,27858654228422E-9;
-1,52042743116795E-9;
-1,28910480222447E-9;
-4,87528142128836E-10;
6,20948075556605E-10;
1,56019393180075E-9;
1,94216164455563E-9;
1,70827167593814E-9;
1,13387014801554E-9;
6,04580147320615E-10;
3,42603110849651E-10;
2,92266462405912E-10;
2,37162443966753E-10;
1,74582393392343E-11;
-3,2853966344528E-10;
-6,16258871875418E-10;
-7,06349878510438E-10;
-6,44968595581332E-10;
-6,29389871808045E-10;
-8,21314697565283E-10;
-1,16818108343743E-9;
-1,39377487440757E-9;
-1,18930742826928E-9;
-4,66238055713397E-10;
5,37760210851062E-10;
1,39280810990985E-9;
1,74738252040963E-9;
1,54337558794399E-9;
1,03077996750071E-9;
5,58026018708092E-10;
3,23030388678188E-10;
2,79183486334758E-10;
2,29918294655148E-10;
3,16442677034527E-11;
-2,80187231283886E-10;
-5,42764212008325E-10;
-6,27710297531691E-10;
-5,75293333732373E-10;
-5,65130944324913E-10;
-7,42263813598851E-10;
-1,05867928507894E-9;
-1,26698372409931E-9;
-1,08894797409579E-9;
-4,4275454656289E-10;
4,59983574169002E-10;
1,2341446664587E-9;
1,56009194519104E-9;
1,38463618394749E-9;
9,31142208424969E-10;
5,0958555055017E-10;
3,00964226208989E-10;
2,63679679787925E-10;
2,20968911660741E-10;
4,38224625073221E-11;
-2,37151216361432E-10;
-4,73744164025754E-10;
-5,52373753215479E-10;
-5,09408748225447E-10;
-5,03461650250743E-10;
-6,65175614888601E-10;
-9,52404412178246E-10;
-1,14325502259803E-9;
-9,89065584075131E-10;
-4,16659942963263E-10;
3,88476092931583E-10;
1,08220366937967E-9;
1,37817400968608E-9;
1,2302563343945E-9;
8,34007353060584E-10;
4,63310413592201E-10;
2,80603227805894E-10;
2,4875800237262E-10;
2,10720067401586E-10;
5,29445134767442E-11;
-1,97857668227035E-10;
-4,09218332988098E-10;
-4,81058606819254E-10;
-4,46590928691658E-10;
-4,43634997574488E-10;
-5,89627150083685E-10;
-8,48465095961519E-10;
-1,0226328331194E-9;
-8,91659084546768E-10;
-3,88227699548422E-10;
3,23429476416119E-10;
9,39130603654339E-10;
1,20795724285913E-9;
1,0845077346855E-9;
7,3874367918188E-10;
4,17140120125001E-10;
2,59087415621226E-10;
2,30401769513404E-10;
1,98475817208418E-10;
6,0576558826197E-11;
-1,60779237510403E-10;
-3,4859446578662E-10;
-4,14946698053363E-10;
-3,86903956254171E-10;
-3,87316271931359E-10;
-5,19151896234138E-10;
-7,49912036144851E-10;
-9,07870861711704E-10;
-7,98382830316946E-10;
-3,59936969697008E-10;
2,64130826189931E-10;
8,06757322720763E-10;
1,04705349030991E-9;
9,45749918746825E-10;
6,50306050473279E-10;
3,72603686922726E-10;
2,36621760637322E-10;
2,13480863067047E-10;
1,85319387428433E-10;
6,48268889962082E-11;
-1,27340115891485E-10;
-2,9190974486312E-10;
-3,52789092179982E-10;
-3,31008854197365E-10;
-3,34923091487531E-10;
-4,53534213098726E-10;
-6,56248604060822E-10;
-7,97411292347545E-10;
-7,07429403578624E-10;
-3,30485552213894E-10;
2,09224518161489E-10;
6,8275500112902E-10;
8,97928474825983E-10;
8,16284731083561E-10;
5,66169007710475E-10;
3,30852563473063E-10;
2,14558841377477E-10;
1,95232932170723E-10;
1,72002378477962E-10;
6,88278248775141E-11;
-9,74355318026428E-11;
-2,42009523453371E-10;
-2,96294525982584E-10;
-2,80383743827083E-10;
-2,85588681546469E-10;
-3,8939125405178E-10;
-5,68691729067125E-10;
-6,9314358656334E-10;
-6,20129107359449E-10;
-3,01041545802924E-10;
1,61520143087617E-10;
5,69373676621776E-10;
7,58653582944082E-10;
6,9520228720931E-10;
4,87851822025739E-10;
2,90292537032018E-10;
1,91404243152434E-10;
1,77719707982804E-10;
1,59759100338352E-10;
7,04406422006917E-11;
-7,16422344583307E-11;
-1,96489510400605E-10;
-2,45598011676608E-10;
-2,33569786352834E-10;
-2,40805265437561E-10;
-3,31630559577284E-10;
-4,87474396098735E-10;
-5,98435188886591E-10;
-5,40153366838053E-10;
-2,72613789447932E-10;
1,19269428503548E-10;
4,66951543787167E-10;
6,3103114232184E-10;
5,84876515961302E-10;
4,14648117410184E-10;
2,51277308803343E-10;
1,72417696240246E-10;
1,606108327676E-10;
1,45248834595135E-10;
7,17197526354749E-11;
-4,9423429641709E-11;
-1,55320150902134E-10;
-1,97791373077396E-10;
-1,91047887818516E-10;
-2,00207796082947E-10;
-2,78375270747769E-10;
-4,11462024346E-10;
-5,09134443923405E-10;
-4,63929551666962E-10;
-2,43867613818479E-10;
8,12842627269059E-11;
3,74823479230838E-10;
5,16654585951298E-10;
4,83735974958632E-10;
3,47332291178627E-10;
2,15268483690461E-10;
1,51988220533702E-10;
1,43192603237065E-10;
1,3119503339012E-10;
7,05916963283203E-11;
-2,9054433832626E-11;
-1,17067739731828E-10;
-1,55023151306994E-10;
-1,52770790672551E-10;
-1,62388290804618E-10;
-2,29812988699346E-10;
-3,42474567693899E-10;
-4,25340775415557E-10;
-3,93474961209288E-10;
-2,17115046247838E-10;
4,87778284765241E-11;
2,91024501547949E-10;
4,11542210722912E-10;
3,91810916230629E-10;
2,88000029355794E-10;
1,83330854673401E-10;
1,32842581447415E-10;
1,27737995096407E-10;
1,19394932479806E-10;
7,00897142550523E-11;
-1,18589760126266E-11;
-8,47112383046809E-11;
-1,1791710790899E-10;
-1,18320954333402E-10;
-1,28770158098891E-10;
-1,8563162020861E-10;
-2,79078311661885E-10;
-3,51049536964944E-10;
-3,29683394172949E-10;
-1,90442650394031E-10;
2,10858762090855E-11;
2,1689309279527E-10;
3,18933960672506E-10;
3,08709930220247E-10;
2,31238916994764E-10;
1,53050438688532E-10;
1,1524147948541E-10;
1,12032777566409E-10;
1,05497842876394E-10;
6,68016404637787E-11;
2,6345299675881E-12;
-5,64778448454226E-11;
-8,49173597752645E-11;
-8,76733412335707E-11;
-9,85402468401311E-11;
-1,45202457249724E-10;
-2,22381205142832E-10;
-2,83692811911397E-10;
-2,70869231999216E-10;
-1,66353653448556E-10;
-3,82485935437667E-12;
1,51181981819629E-10;
2,36880928015407E-10;
2,35773081134488E-10;
1,81212486257896E-10;
1,25470340320182E-10;
9,84952161957562E-11;
9,74911230981998E-11;
9,43621040913312E-11;
6,37125554795203E-11;
1,44030106765013E-11;
-3,08904893484581E-11;
-5,60256373976446E-11;
-6,111496419769E-11;
-7,19114576969745E-11;
-1,10973977621744E-10;
-1,72233610861891E-10;
-2,2158859838418E-10;
-2,17548767923659E-10;
-1,43744701937869E-10;
-2,26552037272E-11;
9,5336697918645E-11;
1,64372635849949E-10;
1,71485309380733E-10;
1,37651155978588E-10;
9,99052182810033E-11;
8,31284929033362E-11;
8,416639519352E-11;
8,1717247372477E-11;
6,05369280303996E-11;
2,5424659486944E-11;
-9,72944936617064E-12;
-3,10472911684678E-11;
-3,73437141057017E-11;
-4,81034467436732E-11;
-7,91446141519756E-11;
-1,26305751065769E-10;
-1,6701694948279E-10;
-1,70616645321876E-10;
-1,22067090311987E-10;
-3,77212835057683E-11;
4,66712645359421E-11;
1,01375368122775E-10;
1,14765340683728E-10;
9,8317649773812E-11;
7,75833472068329E-11;
6,87408615248294E-11;
7,06187551895156E-11;
7,06307785255228E-11;
5,75150822789126E-11;
3,30167498669322E-11;
7,52568426501837E-12;
-8,84080655154605E-12;
-1,71115300057265E-11;
-2,89483274192676E-11;
-5,26878840650144E-11;
-8,75952741917667E-11;
-1,19073208409908E-10;
-1,27513986902985E-10;
-1,02982568081549E-10;
-5,17180551523406E-11;
4,66109779755123E-12;
4,65296328555817E-11;
6,53293840407343E-11;
6,43351506703721E-11;
5,82494687243162E-11;
5,70560954104002E-11;
5,91232479205814E-11;
6,02674783985641E-11;
5,35648518707784E-11;
3,8408409052594E-11;
2,24715500217904E-11;
8,89124062499465E-12;
4,29116106775057E-13;
-9,13896108758741E-12;
-2,8784475545594E-11;
-5,32549700272087E-11;
-7,71410209084486E-11;
-9,10872804255506E-11;
-8,46959635505968E-11;
-6,15550065340827E-11;
-2,97814692978574E-11;
1,12445201443202E-12;
2,28990032477245E-11;
3,45199154005014E-11;
4,03971253212287E-11;
4,51559649081028E-11;
4,92143208549586E-11;
5,13533035351063E-11;
4,917626449169E-11;
4,26211058534278E-11;
3,43217881512637E-11;
2,46215443685931E-11;
1,44904616033187E-11;
4,54630759413387E-12;
-7,14485011479748E-12;
-2,35349406370583E-11;
-4,22051422329939E-11;
-5,76500936873496E-11;
-6,82769226093826E-11;
-6,91109417092603E-11;
-5,78488300564423E-11;
-3,79631035161641E-11;
-1,33583102800033E-11;
8,45319295282411E-12;
2,49649180778264E-11;
3,49770896909718E-11;
3,83869560833457E-11;
4,20404882326415E-11;
4,51277193316325E-11;
4,56124545531751E-11;
4,36222979408666E-11;
3,6151792625163E-11;
2,58352076346392E-11;
1,68901919235009E-11;
9,45725210245042E-12;
1,18209942861971E-12;
-1,02394826776653E-11;
-2,86352168469939E-11;
-5,29301231433067E-11;
-7,39637694940071E-11;
-8,17294767983315E-11;
-6,90319404811109E-11;
-4,22450368518755E-11;
-1,2778775287617E-11;
1,23559151354048E-11;
2,57844055884064E-11;
3,02710996150956E-11;
3,48133669696607E-11;
4,12480678721775E-11;
4,8059254503311E-11;
5,13588792575469E-11;
4,59735825774411E-11;
3,51513173077625E-11;
2,66216532423867E-11;
2,35817025489369E-11;
2,34477118052631E-11;
1,65337837773896E-11;
-5,32679560384372E-12;
-3,98485830258443E-11;
-7,66418441310521E-11;
-9,93847971873942E-11;
-9,54354788323168E-11;
-6,73116077114989E-11;
-2,94187750978585E-11;
9,59859517987768E-13;
1,67106872770284E-11;
2,28142287048656E-11;
2,6918120354971E-11;
3,60037550619927E-11;
4,90463298762893E-11;
5,68300486926698E-11;
5,3240860621501E-11;
4,27255745175533E-11;
3,50250288417107E-11;
3,50656985335904E-11;
4,05292068056737E-11;
3,85324630905274E-11;
1,57389987776622E-11;
-2,80705936298533E-11;
-7,91100808237294E-11;
-1,13375760355369E-10;
-1,15168708642289E-10;
-8,64821376614752E-11;
-4,43728614758808E-11;
-9,54869166436263E-12;
9,67520596556346E-12;
1,5981347174379E-11;
2,06145871506671E-11;
3,23585805535627E-11;
4,88969820728653E-11;
6,07603039044521E-11;
5,86688722238346E-11;
4,79947354166883E-11;
4,1352196818098E-11;
4,38680904009857E-11;
5,36337093630756E-11;
5,58635120301606E-11;
3,18894668892999E-11;
-1,85399009540294E-11;
-7,86806730180065E-11;
-1,22512710331486E-10;
-1,29418946434944E-10;
-1,01512368679927E-10;
-5,64165182237108E-11;
-1,63566698425098E-11;
4,28427391083379E-12;
9,82872446903547E-12;
1,46076150630556E-11;
2,86238851829551E-11;
4,87797693322008E-11;
6,26971174355699E-11;
6,1929462546517E-11;
5,2427977789735E-11;
4,67503696463283E-11;
5,12502877497168E-11;
6,49048677570482E-11;
6,99826649172924E-11;
4,5729098998786E-11;
-8,94399339460139E-12;
-7,75584272363575E-11;
-1,28661717757457E-10;
-1,39976019987306E-10;
-1,13251786362155E-10;
-6,4981519430514E-11;
-2,24388394901649E-11;
-2,05384952619913E-12;
3,7188910812319E-12;
1,03177543126964E-11;
2,5835730300157E-11;
4,71554007335743E-11;
6,2950277529054E-11;
6,46504839053331E-11;
5,53473619298485E-11;
4,85366982777948E-11;
5,64855085113515E-11;
7,34652011529766E-11;
8,00267275199093E-11;
5,69572187578609E-11;
-1,98467977694766E-12;
-7,59694544645564E-11;
-1,31954264564219E-10;
-1,48009487945476E-10;
-1,20637240250355E-10;
-7,06234010724269E-11;
-2,77471815424739E-11;
-6,07361542235E-12;
-2,33072708147123E-13;
5,2032929124909E-12;
2,11559904249858E-11;
4,53309482585893E-11;
6,37582390043157E-11;
6,57107031228433E-11;
5,62685280906385E-11;
5,04185895743485E-11;
5,9362628960667E-11;
7,81738486825875E-11;
8,81803341116712E-11;
6,57735344770644E-11;
4,27732028839473E-12;
-7,2421848441189E-11;
-1,33030479777497E-10;
-1,52428765088442E-10;
-1,25217644432156E-10;
-7,54473567933965E-11;
-3,10449754170794E-11;
-7,87098806560263E-12;
-3,72435044084571E-12;
1,58756214413002E-12;
1,8924564365223E-11;
4,277543004859E-11;
6,24721725608588E-11;
6,56510869431095E-11;
5,66909067316375E-11;
5,23169802781365E-11;
6,17492771044315E-11;
8,29620850908427E-11;
9,40385206669509E-11;
7,06906663599789E-11;
1,03098534598605E-11;
-6,86405699871164E-11;
-1,31735021854038E-10;
-1,51676693810795E-10;
-1,26367966650752E-10;
-7,72281905941378E-11;
-3,46770969710541E-11;
-1,21538830440527E-11;
-5,99101344173736E-12;
-2,21055176340715E-12;
1,46564647205141E-11;
3,99617912250446E-11;
5,9510838409785E-11;
6,4520368131494E-11;
5,59184966054641E-11;
5,10622367605422E-11;
6,27748330364033E-11;
8,42656061763641E-11;
9,63289851657227E-11;
7,50838589113449E-11;
1,45921087923032E-11;
-6,45835884311091E-11;
-1,28784488929906E-10;
-1,49601626718405E-10;
-1,26605142128197E-10;
-7,99479491574169E-11;
-3,56247600513607E-11;
-1,38747378872779E-11;
-9,20448652295371E-12;
-4,08487806204887E-12;
1,17199087552422E-11;
3,75992934407469E-11;
5,85625938562669E-11;
6,23972298113151E-11;
5,45422438801017E-11;
5,08324226958586E-11;
6,2928179134396E-11;
8,5736168789443E-11;
9,87463524562154E-11;
7,84457253029381E-11;
1,82294481629626E-11;
-6,04520032799417E-11;
-1,23771719672796E-10;
-1,46718367988114E-10;
-1,24605897620181E-10;
-7,83190798821619E-11;
-3,73044996315215E-11;
-1,59828889534731E-11;
-1,09519947919247E-11;
-7,04292934553022E-12;
9,0377268809766E-12;
3,46167378332571E-11;
5,48134274490673E-11;
5,97148701581585E-11;
5,28211235585615E-11;
4,938769625035E-11;
6,22496275511373E-11;
8,50388177362447E-11;
9,80007008762933E-11;
7,87442755403181E-11;
2,09603615379166E-11;
-5,54049759401541E-11;
-1,19344405098964E-10;
-1,42741585675402E-10;
-1,2082102239976E-10;
-7,68445646114111E-11;
-3,76965013234673E-11;
-1,77904158675849E-11;
-1,35864215310282E-11;
-8,59313998209572E-12;
7,56098433615481E-12;
3,12958792650904E-11;
5,12511822149171E-11;
5,65790725105052E-11;
5,03608233382053E-11;
4,78725428985626E-11;
6,00062779767059E-11;
8,33698952990447E-11;
9,66697895745067E-11;
7,80333050445168E-11;
2,36131622325153E-11;
-5,08032869923022E-11;
-1,12430666744908E-10;
-1,35274742894196E-10;
-1,16487594086736E-10;
-7,37326663902284E-11;
-3,66811537710186E-11;
-1,87978349200921E-11;
-1,38000351637763E-11;
-9,31397629309702E-12;
6,10654230496356E-12;
2,86372210271727E-11;
4,7056738876273E-11;
5,36781564662705E-11;
4,80413294381625E-11;
4,54148440539025E-11;
5,79364097155126E-11;
7,9280615699981E-11;
9,33610887886396E-11;
7,75879438485478E-11;
2,42388790193632E-11;
-4,65552040742636E-11;
-1,05692304554725E-10;
-1,28541661910859E-10;
-1,10865959275545E-10;
-7,2120218253206E-11;
-3,66270029302314E-11;
-1,87400246462702E-11;
-1,49852163959908E-11;
-1,06506928558136E-11;
3,75580636251278E-12;
2,59274864557496E-11;
4,42138596022716E-11;
4,96080747180492E-11;
4,5564830352785E-11;
4,35798355925705E-11;
5,50281317987644E-11;
7,67587770861264E-11;
8,9781137604702E-11;
7,48442079756471E-11;
2,59435570028362E-11;
-4,09744161707743E-11;
-9,73745146403364E-11;
-1,19925654568231E-10;
-1,04323458663283E-10;
-6,80736701235394E-11;
-3,5134764155101E-11;
-1,91578807131265E-11;
-1,57116008259568E-11;
-1,12410475703222E-11;
1,86464951562342E-12;
2,28667179806243E-11;
4,11416964833356E-11;
4,59448209571696E-11;
4,16367258370234E-11;
4,03945351103295E-11;
5,167416946354E-11;
7,20301625268953E-11;
8,48034327491719E-11;
7,25125283786569E-11;
2,58199576493401E-11;
-3,90764560309741E-11;
-9,112975365886E-11;
-1,12024009357804E-10;
-9,7865698808824E-11;
-6,33918281604374E-11;
-3,322418497276E-11;
-1,85514980378485E-11;
-1,53545354494833E-11;
-1,2432531040264E-11;
3,01952805847652E-13;
2,09209442194643E-11;
3,69894560892613E-11;
4,17763701476823E-11;
3,82979794529344E-11;
3,68060511943674E-11;
4,86610868974982E-11;
6,86023175250346E-11;
8,01861538609945E-11;
6,81982209428735E-11;
2,59260662908908E-11;
-3,30684099470427E-11;
-8,3024542021614E-11;
-1,02427302530557E-10;
-8,953980817131E-11;
-6,06466920310336E-11;
-3,27125854132842E-11;
-1,83183976620886E-11;
-1,58292640498453E-11;
-1,19358796984483E-11;
1,29367859598796E-13;
1,82667346020546E-11;
3,39277924692756E-11;
3,89612773980506E-11;
3,51587692504934E-11;
3,37836011770324E-11;
4,44531895265164E-11;
6,39451308563024E-11;
7,58710680214864E-11;
6,3958484865441E-11;
2,57526599761071E-11;
-2,79937401373316E-11;
-7,54107945275242E-11;
-9,47628347950246E-11;
-8,3091770672973E-11;
-5,54415433130009E-11;
-2,9713349908261E-11;
-1,70581328955615E-11;
-1,56440621969711E-11;
-1,25100617702351E-11;
-1,29451400604729E-12;
1,56135623080204E-11;
3,1429032926179E-11;
3,56657142236367E-11;
3,13661918326942E-11;
3,12709739382655E-11;
4,07094422498139E-11;
5,79046619872289E-11;
7,01240977065159E-11;
6,01905386584064E-11;
2,44333220858027E-11;
-2,423794568318E-11;
-6,70325853631346E-11;
-8,65796103682245E-11;
-7,64596730252119E-11;
-5,11971896782638E-11;
-2,8366965886006E-11;
-1,64629368835274E-11;
-1,43527729448014E-11;
-1,1814152494782E-11;
-2,66589927176376E-12;
1,34489529740749E-11;
2,75576503146411E-11;
3,05282556374541E-11;
2,83972248773137E-11;
2,93315015526728E-11;
3,75753378380293E-11;
5,32458056013302E-11;
6,49323637770682E-11;
5,64600266433118E-11;
2,42767140079169E-11;
-2,04931117346726E-11;
-6,02061474096401E-11;
-7,70360443921417E-11;
-6,8364713801771E-11;
-4,64932653660489E-11;
-2,58732085314108E-11;
-1,5950139577612E-11;
-1,39958525383767E-11;
-1,17961464146502E-11;
-2,83889958261762E-12;
1,18751090912015E-11;
2,36839511983135E-11;
2,75551792087845E-11;
2,5560210434788E-11;
2,59217554150381E-11;
3,46049393120921E-11;
4,90191744338375E-11;
5,91870884509002E-11;
5,20738722552109E-11;
2,31591228259162E-11;
-1,75101043263783E-11;
-5,30142811703701E-11;
-6,94776650998701E-11;
-6,22586743984512E-11;
-4,26337494467311E-11;
-2,47160938391319E-11;
-1,44203737214029E-11;
-1,29601287818381E-11;
-1,20598497985226E-11;
-3,60699896457372E-12;
1,01553316260348E-11;
2,1224133167803E-11;
2,4520009028E-11;
2,30053010582466E-11;
2,28759892407835E-11;
3,04823054277218E-11;
4,40953720965017E-11;
5,30929504559732E-11;
4,73322071773835E-11;
2,1399140689665E-11;
-1,5095228289896E-11;
-4,62319420702753E-11;
-6,18408817115306E-11;
-5,57323152319488E-11;
-3,76789691021117E-11;
-2,21132286019737E-11;
-1,41660762751994E-11;
-1,31601151914639E-11;
-1,07426847985409E-11;
-3,24065490158748E-12;
7,26413750561904E-12;
1,73712049167418E-11;
2,16658224728153E-11;
2,03860134730801E-11;
2,01206137537457E-11;
2,76201201679929E-11;
4,00815292033867E-11;
4,76288279227973E-11;
4,19921832325396E-11;
1,98801239403259E-11;
-1,22562350548757E-11;
-4,01186100841411E-11;
-5,24810744952928E-11;
-4,79572305842022E-11;
-3,31493962074329E-11;
-1,98366135541612E-11;
-1,3299241890327E-11;
-1,06069052242263E-11;
-9,32182958235539E-12;
-3,89373004608926E-12;
6,03007173630703E-12;
1,45697886772305E-11;
1,90406841223703E-11;
1,78762236712144E-11;
1,72255129310241E-11;
2,44120209434189E-11;
3,55870019970641E-11;
4,24110709085493E-11;
3,76413658329634E-11;
1,86508325099663E-11;
-9,52479877575676E-12;
-3,42312023930358E-11;
-4,54402571529154E-11;
-4,26908145094779E-11;
-3,01017730513777E-11;
-1,75111896507862E-11;
-1,1610448046093E-11;
-1,03683275174703E-11;
-9,07110996856098E-12;
-3,78092847058706E-12;
3,99911680257626E-12;
1,1937056556713E-11;
1,56925958779037E-11;
1,44238307457046E-11;
1,53900933492398E-11;
2,1029783907967E-11;
3,07105830565421E-11;
3,78512722106379E-11;
3,39136871424327E-11;
