4,87974083221444E-10;
1,83078528544844E-9;
2,4602758999053E-9;
2,2671439971198E-9;
1,59800459460993E-9;
9,57946692190851E-10;
6,46415356399267E-10;
6,02689507395795E-10;
5,42592456523248E-10;
2,55839931021601E-10;
-2,09059494018331E-10;
-6,16129953316932E-10;
-7,78859636537313E-10;
-7,48510173587187E-10;
-7,76917269698981E-10;
-1,0785011827963E-9;
-1,59096111586353E-9;
-1,95938541698111E-9;
-1,78073213242578E-9;
-9,20007458423621E-10;
3,45464542530718E-10;
1,47849395598773E-9;
2,02307961330584E-9;
1,88375647764749E-9;
1,34400660620011E-9;
8,23765839623445E-10;
5,72396270023441E-10;
5,38570172585878E-10;
4,91284874891571E-10;
2,54740604932941E-10;
-1,33668244311179E-10;
-4,76243556391001E-10;
-6,18410277240465E-10;
-6,02188822146139E-10;
-6,35450655624514E-10;
-8,94331142811152E-10;
-1,32865098835336E-9;
-1,6471802421739E-9;
-1,51533934564332E-9;
-8,1774459090424E-10;
2,22075819313765E-10;
1,16252777671229E-9;
1,62708959358746E-9;
1,53467498938968E-9;
1,11164601127797E-9;
6,98477521048165E-10;
5,00301624600526E-10;
4,76705502825872E-10;
4,40892766310601E-10;
2,49987260794185E-10;
-6,84442951731207E-11;
-3,52771200589525E-10;
-4,75461945317439E-10;
-4,71423144216384E-10;
-5,07315799166468E-10;
-7,25911076919484E-10;
-1,08921958739792E-9;
-1,36153284566835E-9;
-1,27047028534613E-9;
-7,19398244417442E-10;
1,14780654873769E-10;
8,79547799791656E-10;
1,27218187544487E-9;
1,22089754617814E-9;
9,01823677023704E-10;
5,84434564328806E-10;
4,32632750358067E-10;
4,18656242850188E-10;
3,92316373302279E-10;
2,40720133396303E-10;
-1,22058135097588E-11;
-2,42821492087278E-10;
-3,48327925438276E-10;
-3,54210793925752E-10;
-3,92631060432974E-10;
-5,74542340820351E-10;
-8,72855278010044E-10;
-1,10255478372613E-9;
-1,04662244709597E-9;
-6,27358435834814E-10;
2,28119032447421E-11;
6,3127346658584E-10;
9,56972949385025E-10;
9,40089072471999E-10;
7,1285822760185E-10;
4,80499279615525E-10;
3,71387375092951E-10;
3,64531500111002E-10;
3,45801926030275E-10;
2,30353685252167E-10;
3,49367410799065E-11;
-1,47452935640238E-10;
-2,37796984486927E-10;
-2,51824704467393E-10;
-2,90714196390694E-10;
-4,4032953337671E-10;
-6,78626143715855E-10;
-8,68717180628185E-10;
-8,44664266696617E-10;
-5,40313851487494E-10;
-5,31961250265039E-11;
4,13939090163972E-10;
6,79298184843769E-10;
6,90540618338614E-10;
5,4262118577388E-10;
3,85877031840259E-10;
3,13273764965212E-10;
3,1272761147421E-10;
3,02266014843277E-10;
2,18927156386689E-10;
7,3698301163141E-11;
-6,58687578898554E-11;
-1,40972493503208E-10;
-1,62830741476987E-10;
-2,01956070759916E-10;
-3,20711762085657E-10;
-5,06992156635419E-10;
-6,61100282148662E-10;
-6,62754168287432E-10;
-4,60577934071353E-10;
-1,16217125735446E-10;
2,26130353982009E-10;
4,35947578523757E-10;
4,73057007425401E-10;
3,93222990547687E-10;
2,99942119977246E-10;
2,60291162985719E-10;
2,64479692270516E-10;
2,60590022974104E-10;
2,05291571171204E-10;
1,04057432455916E-10;
3,38229808579813E-12;
-5,81550594284477E-11;
-8,46716485363498E-11;
-1,22789178679866E-10;
-2,15912503576396E-10;
-3,55487438332733E-10;
-4,77401632419281E-10;
-5,01115674884532E-10;
-3,8635727678426E-10;
-1,67162218455704E-10;
6,65245253612518E-11;
2,27729150818182E-10;
2,83043820747822E-10;
2,62262604602319E-10;
2,25104176976547E-10;
2,1192945453577E-10;
2,20629330463615E-10;
2,2284676928282E-10;
1,92086656407912E-10;
1,28633882433865E-10;
6,08683178351674E-11;
1,22445870599601E-11;
-1,8851642484175E-11;
-5,58165130521716E-11;
-1,24425084655186E-10;
-2,23462921852715E-10;
-3,17221190787541E-10;
-3,5782868737125E-10;
-3,17846288485382E-10;
-2,07027205089959E-10;
-6,84289677444157E-11;
4,88691016524672E-11;
1,20065718866894E-10;
1,48757619775911E-10;
1,57906649522859E-10;
1,67847377773225E-10;
1,80891719616426E-10;
1,87474921012924E-10;
1,76153334543662E-10;
1,46728962845932E-10;
1,07956682045527E-10;
7,00032572356576E-11;
3,67085072131956E-11;
1,6226656118283E-13;
-4,73279493308582E-11;
-1,09073234390641E-10;
-1,77879765657833E-10;
-2,3311701998613E-10;
-2,55703988886415E-10;
-2,37516802796929E-10;
-1,80955415120042E-10;
-1,0041544957607E-10;
-1,77463148850555E-11;
5,15364935804396E-11;
1,00178527634536E-10;
1,28529418518365E-10;
1,44443721201159E-10;
1,55132020918047E-10;
1,61774097778851E-10;
1,60584560815359E-10;
1,46584356741432E-10;
1,18609741055403E-10;
8,31779262022387E-11;
4,84679487684969E-11;
1,82620660379806E-11;
-1,20231634603913E-11;
-5,65203125606303E-11;
-1,23419264272378E-10;
-2,00217860201571E-10;
-2,58446651048671E-10;
-2,70936644535231E-10;
-2,2531133882231E-10;
-1,33167264312947E-10;
-2,98435418813969E-11;
5,01499928145514E-11;
9,3925007265898E-11;
1,10969969903917E-10;
1,23981502734293E-10;
1,45963770265443E-10;
1,68617575755898E-10;
1,75142890400946E-10;
1,56604480450181E-10;
1,19972006908988E-10;
8,66754415070053E-11;
7,37763192451043E-11;
6,94573824847612E-11;
4,28712037050952E-11;
-3,08969076186586E-11;
-1,49837611476177E-10;
-2,7324778482852E-10;
-3,44005363478875E-10;
-3,25822395826293E-10;
-2,28579381035582E-10;
-9,92399205845566E-11;
7,89392095649316E-12;
6,31450670678216E-11;
8,19237993996853E-11;
9,78113862158402E-11;
1,30071387919685E-10;
1,73401863857827E-10;
1,98627026934683E-10;
1,85726330631387E-10;
1,49278326168791E-10;
1,20487355593388E-10;
1,19040504472888E-10;
1,35658753950158E-10;
1,27831519496637E-10;
4,81083109514692E-11;
-1,06789959828985E-10;
-2,81781758333669E-10;
-3,98404469355321E-10;
-4,04914870497642E-10;
-3,04567592570167E-10;
-1,543577459187E-10;
-2,8184651301147E-11;
3,67484423639814E-11;
5,64096011338695E-11;
7,32928142911819E-11;
1,15833672847005E-10;
1,7408301894685E-10;
2,12774637182705E-10;
2,08186205932982E-10;
1,71689848266231E-10;
1,44112487918992E-10;
1,55485160549364E-10;
1,91068224022391E-10;
1,96152525879793E-10;
1,11571445281499E-10;
-6,8235422111181E-11;
-2,82824725681196E-10;
-4,3907576614722E-10;
-4,65206663868567E-10;
-3,63196660648615E-10;
-1,99842014390747E-10;
-5,92101872840755E-11;
1,33349114187637E-11;
3,4543471376816E-11;
5,25776529066869E-11;
1,0181874427198E-10;
1,72649275264444E-10;
2,22423353971635E-10;
2,22867585617212E-10;
1,88367407368814E-10;
1,62784408963933E-10;
1,82748575129994E-10;
2,33710614412478E-10;
2,50255599436026E-10;
1,65381529953796E-10;
-3,3498491571554E-11;
-2,80056864178794E-10;
-4,66066395966934E-10;
-5,09229688621625E-10;
-4,06918700897916E-10;
-2,33975324729337E-10;
-8,39612743196215E-11;
-7,07330635040192E-12;
1,39359774654835E-11;
3,34433117084761E-11;
8,8249745135935E-11;
1,67913214627165E-10;
2,27786563689964E-10;
2,33307446471935E-10;
1,98945655915552E-10;
1,76576110259182E-10;
2,04380839730057E-10;
2,66426988340913E-10;
2,93020147962657E-10;
2,07995170965436E-10;
-4,93382456306886E-12;
-2,73849058930592E-10;
-4,81394634087908E-10;
-5,38571379165245E-10;
-4,38825378050234E-10;
-2,59448357141882E-10;
-1,02114929696537E-10;
-2,25974848651857E-11;
-2,44368873233086E-12;
1,73929842664058E-11;
7,57596804353271E-11;
1,62140585697285E-10;
2,29393884007567E-10;
2,3865087800484E-10;
2,04943212699157E-10;
1,84785085201626E-10;
2,19169875289749E-10;
2,90506615791082E-10;
3,24223502851288E-10;
2,39961099596741E-10;
1,95174328973255E-11;
-2,6434702192746E-10;
-4,88495249855155E-10;
-5,5564230394133E-10;
-4,58213190692424E-10;
-2,77955251643743E-10;
-1,18258113182294E-10;
-3,62200897392845E-11;
-1,55663496045158E-11;
3,32553133739365E-12;
6,41106621142514E-11;
1,55421051194373E-10;
2,25607473480881E-10;
2,38064839969359E-10;
2,07063952271858E-10;
1,884482958062E-10;
2,27013697537929E-10;
3,05680519927671E-10;
3,46714763531922E-10;
2,64055840567506E-10;
3,91832843554304E-11;
-2,52223985642726E-10;
-4,8572634168112E-10;
-5,60994956302314E-10;
-4,68000965563624E-10;
-2,88551454546095E-10;
-1,29227556553472E-10;
-4,81416883085595E-11;
-2,77426127744994E-11;
-8,84429941596181E-12;
5,29077511821587E-11;
1,46683686494307E-10;
2,2004070872448E-10;
2,35324785866197E-10;
2,06098136310677E-10;
1,89116233474075E-10;
2,31013431305021E-10;
3,14391591909253E-10;
3,59402673005456E-10;
2,80600196159267E-10;
5,71634024532487E-11;
-2,38313209992609E-10;
-4,76934462418409E-10;
-5,57266707623295E-10;
-4,69245441549147E-10;
-2,92601030877997E-10;
-1,35270656547316E-10;
-5,56497103016226E-11;
-3,73357795603234E-11;
-1,98472647199631E-11;
4,33400161225115E-11;
1,3783062337871E-10;
2,11113880133886E-10;
2,2904182920519E-10;
2,02558167699768E-10;
1,87223431142586E-10;
2,31904100399755E-10;
3,1788071673297E-10;
3,65860349733588E-10;
2,90418258654909E-10;
7,00973284025143E-11;
-2,22948026679872E-10;
-4,62484445042168E-10;
-5,46435325135361E-10;
-4,64665120961496E-10;
-2,94379278477261E-10;
-1,39929238194837E-10;
-6,25686995420892E-11;
-4,52218046417525E-11;
-2,70260363991107E-11;
3,42247608257741E-11;
1,27353799005115E-10;
2,02045478636698E-10;
2,20468928213927E-10;
1,95722862933662E-10;
1,82924812912871E-10;
2,28711173886643E-10;
3,15888926992704E-10;
3,65424905931576E-10;
2,94342933848057E-10;
8,04069673288823E-11;
-2,07311713293086E-10;
-4,44255978282122E-10;
-5,29720532231792E-10;
-4,52342992517992E-10;
-2,89387653989945E-10;
-1,41452946638592E-10;
-6,66373332667893E-11;
-5,04792260986809E-11;
-3,31687428338543E-11;
2,60994201840902E-11;
1,17340737448069E-10;
1,91572344698457E-10;
2,09863211988472E-10;
1,87301562083872E-10;
1,77339209424782E-10;
2,2313172778588E-10;
3,09785497488585E-10;
3,60368519746783E-10;
2,93600778420581E-10;
8,82390824144989E-11;
-1,90453823931049E-10;
-4,21845685494296E-10;
-5,07814050877245E-10;
-4,36673132517182E-10;
-2,81048395658189E-10;
-1,39804426636759E-10;
-6,94587526563145E-11;
-5,43255611554442E-11;
-3,84259286437187E-11;
1,90209030412174E-11;
1,07515993797306E-10;
1,78808313473661E-10;
1,98657772160073E-10;
1,78589896109586E-10;
1,69376532519831E-10;
2,14643241671694E-10;
2,9877949257131E-10;
3,49436916818819E-10;
2,88347627130465E-10;
9,25862556643454E-11;
-1,74191593201416E-10;
-3,96610109889764E-10;
-4,81864753714159E-10;
-4,17131098843682E-10;
-2,70815518190347E-10;
-1,37252380904236E-10;
-7,12986060513585E-11;
-5,71225041521965E-11;
-4,17523819633239E-11;
1,17502621699561E-11;
9,70322759950378E-11;
1,66467178452797E-10;
1,85185027183425E-10;
1,67118227380517E-10;
1,59092737731016E-10;
2,03775645356471E-10;
2,86708499833975E-10;
3,37130555683375E-10;
2,81063035880257E-10;
9,61543482448442E-11;
-1,57449991014965E-10;
-3,69965876983605E-10;
-4,52654339387953E-10;
-3,93432788033707E-10;
-2,57500035492294E-10;
-1,33729746218309E-10;
-7,16110135024442E-11;
-5,89847781481083E-11;
-4,63884895349218E-11;
6,08412521349347E-12;
8,7055061077279E-11;
1,52428590303239E-10;
1,72005939365982E-10;
1,56098476024959E-10;
1,5106005698928E-10;
1,93773576794719E-10;
2,72276670796468E-10;
3,21962686999505E-10;
2,69969685145615E-10;
9,71157241367673E-11;
-1,40722473749702E-10;
-3,41795900733845E-10;
-4,22258629370621E-10;
-3,69474641577159E-10;
-2,43909424304683E-10;
-1,28868448637881E-10;
-7,11550132283123E-11;
-5,88946166627079E-11;
-4,57907212783179E-11;
1,53778123219813E-12;
7,53566732579574E-11;
1,3841457275532E-10;
1,58418725706042E-10;
1,43822220190333E-10;
1,39612805581072E-10;
1,81067532403564E-10;
2,56453223145855E-10;
3,03814923265666E-10;
2,56754604697247E-10;
9,74812683157644E-11;
-1,24657785046679E-10;
-3,1363144964203E-10;
-3,90283233163706E-10;
-3,44011547335817E-10;
-2,28714457861137E-10;
-1,21466313298517E-10;
-6,88995355963348E-11;
-5,83976482225231E-11;
-4,65718890119614E-11;
-3,06963301668828E-12;
6,71892901088314E-11;
1,26221592875379E-10;
1,44364554255796E-10;
1,32421075765592E-10;
1,29353114473521E-10;
1,68757016695949E-10;
2,39671478549408E-10;
2,84935599831613E-10;
2,43534899499694E-10;
9,60656814294556E-11;
-1,09931796812621E-10;
-2,85846578740178E-10;
-3,58447442339536E-10;
-3,15501742378934E-10;
-2,11771360875873E-10;
-1,16131424620909E-10;
-6,62529047683755E-11;
-5,6543997745676E-11;
-4,72789558688345E-11;
-6,4228468867913E-12;
5,90424343868753E-11;
1,13267148932144E-10;
1,31176666081452E-10;
1,21461438208346E-10;
1,18242492410629E-10;
1,54634119392218E-10;
2,21404396056572E-10;
2,64899240838387E-10;
2,27784122600638E-10;
9,29446334414105E-11;
-9,51652611212842E-11;
-2,57309099119235E-10;
-3,26266861322723E-10;
-2,8959318632081E-10;
-1,94887062007484E-10;
-1,06404596308511E-10;
-6,36891554452902E-11;
-5,68062031223142E-11;
-4,69358230426023E-11;
-9,37015806122748E-12;
5,07118946555437E-11;
1,00820775245505E-10;
1,16879227922803E-10;
1,08536697712245E-10;
1,07763868311526E-10;
1,42670446188676E-10;
2,03236526857049E-10;
2,43014336758004E-10;
2,11291312699912E-10;
9,00819895860328E-11;
-8,20020562811236E-11;
-2,30837212298221E-10;
-2,94376796062334E-10;
-2,62570421016942E-10;
-1,77964940069919E-10;
-9,92081354293314E-11;
-6,0595123462156E-11;
-5,33402140900821E-11;
-4,52526746856327E-11;
-1,13259994048488E-11;
4,28863787149498E-11;
8,79920755970318E-11;
1,04690121859323E-10;
9,7596486383603E-11;
9,63329057745134E-11;
1,2938205065706E-10;
1,85732731388709E-10;
2,2257970355245E-10;
1,94780736273722E-10;
8,54152107501719E-11;
-6,99194234028191E-11;
-2,04103108835324E-10;
-2,63831941603071E-10;
-2,37176491625245E-10;
-1,61175537648573E-10;
-9,10925993859229E-11;
-5,64078951280508E-11;
-5,03348579294043E-11;
-4,36961928759402E-11;
-1,32473643625728E-11;
3,55310613839492E-11;
7,67828523208605E-11;
9,23033929688694E-11;
8,69680407671902E-11;
8,64336628709376E-11;
1,16284304829872E-10;
1,68461152518331E-10;
2,03132396286115E-10;
1,7865873973187E-10;
8,10045240941704E-11;
-5,82758107281909E-11;
-1,79938882668074E-10;
-2,3408557980265E-10;
-2,11089518367812E-10;
-1,45299065828637E-10;
-8,35216949683944E-11;
-5,20437169188743E-11;
-4,67794766210404E-11;
-4,14578560795513E-11;
-1,43880520327491E-11;
2,96207924267252E-11;
6,76113949515186E-11;
8,04011059275487E-11;
7,52469614370426E-11;
7,72451852429007E-11;
1,03141993056092E-10;
1,48886242413306E-10;
1,81866290128805E-10;
1,62095877330696E-10;
7,59220743379039E-11;
-4,75534701096986E-11;
-1,55285712095731E-10;
-2,06073349027405E-10;
-1,87915280628614E-10;
-1,29771831664352E-10;
-7,58584356004978E-11;
-4,88411406445669E-11;
-4,47340441713511E-11;
-3,98720967723821E-11;
-1,56979911584145E-11;
2,36669771263218E-11;
5,74775635266904E-11;
6,90319464616959E-11;
6,50809694557478E-11;
6,69794861709319E-11;
9,10713741654445E-11;
1,33439308394945E-10;
1,6303507792945E-10;
1,45867600728305E-10;
7,13053340019557E-11;
-3,82629032197289E-11;
-1,34187560895173E-10;
-1,78101189258604E-10;
-1,64223544974875E-10;
-1,14780710903947E-10;
-6,67671006895804E-11;
-4,46858548295852E-11;
-4,15398953258678E-11;
-3,62340272401241E-11;
-1,60139825772933E-11;
1,83088411759449E-11;
4,78852583151116E-11;
5,87058512434283E-11;
5,7193186945805E-11;
5,81066338171534E-11;
7,97137264077394E-11;
1,1862408255684E-10;
1,44365583621878E-10;
1,29437245484451E-10;
6,50429640318902E-11;
-2,92376096242154E-11;
-1,13738794944456E-10;
-1,54024461357914E-10;
-1,41493160599589E-10;
-9,96340971724084E-11;
-6,03328760571701E-11;
-4,03523492963637E-11;
-3,76522855383931E-11;
-3,39710330313613E-11;
-1,59742837883096E-11;
1,27231687450409E-11;
4,00350770847087E-11;
5,11119092126009E-11;
4,84128866012895E-11;
5,02809356054413E-11;
6,91643196099917E-11;
1,03038450732545E-10;
1,27103303726273E-10;
1,14836157202913E-10;
5,98042607131065E-11;
-2,22492747220086E-11;
-9,53174039660049E-11;
-1,30805858636772E-10;
-1,22463306675963E-10;
-8,62107683300929E-11;
-5,21692714501945E-11;
-3,61772843417437E-11;
-3,41573836075713E-11;
-3,14948855766205E-11;
-1,55754373746859E-11;
9,59364998122176E-12;
3,14600261151034E-11;
4,10219419925955E-11;
4,00337150682318E-11;
4,24660044201439E-11;
5,96160686229093E-11;
8,82369804715124E-11;
1,09371907962204E-10;
1,00485715009623E-10;
5,42847839378704E-11;
-1,56061504676662E-11;
-7,88496866147092E-11;
-1,0959814060961E-10;
-1,03556756537951E-10;
-7,48041029273165E-11;
-4,6610784817418E-11;
-3,31335253760501E-11;
-3,18396162935711E-11;
-2,92575375075291E-11;
-1,52836806010609E-11;
6,01081655323736E-12;
2,47159879813711E-11;
3,31563411763655E-11;
3,30749826178945E-11;
3,57546921075849E-11;
5,04202756708597E-11;
7,5278545657737E-11;
9,44697376729078E-11;
8,78333065290626E-11;
4,94850654802909E-11;
-8,72811553504671E-12;
-6,35008632133306E-11;
-9,09260653784584E-11;
-8,64930185660987E-11;
-6,28770608534494E-11;
-3,9480391762511E-11;
-2,96412877430878E-11;
-2,81798664797179E-11;
-2,60493013088941E-11;
-1,53508089479293E-11;
3,46133491201243E-12;
1,89021776554267E-11;
2,62994328164367E-11;
2,70589816712663E-11;
2,9542268905048E-11;
4,23299450881168E-11;
6,27867582547805E-11;
7,95357467190936E-11;
7,56800951115883E-11;
4,46409229773516E-11;
-4,06152663067065E-12;
-5,01437232402801E-11;
-7,29218024167538E-11;
-6,95275245896513E-11;
-5,17534778036244E-11;
-3,36680301865622E-11;
-2,52365577090454E-11;
-2,52210805866861E-11;
-2,3917325424241E-11;
-1,48717937963615E-11;
3,81080344207747E-13;
1,36110407599031E-11;
1,98332861920708E-11;
2,14311403988853E-11;
2,3534207107338E-11;
3,43019720616064E-11;
5,26540517707147E-11;
6,61849924735965E-11;
6,35490901966646E-11;
3,92611367387041E-11;
2,82802594399399E-14;
-3,72580981347976E-11;
-5,70483906556152E-11;
-5,56868662464039E-11;
-4,22818687771046E-11;
-2,88097609997654E-11;
-2,24606978396449E-11;
-2,1637978728137E-11;
-2,0189037675617E-11;
-1,3657732141358E-11;
-2,16728651249164E-12;
9,13992082487359E-12;
1,5035048154141E-11;
1,57918711019533E-11;
1,88193109718501E-11;
2,81450492570135E-11;
4,27997854139659E-11;
5,53394381960878E-11;
5,29759873330338E-11;
3,37802411087034E-11;
3,15074796365292E-12;
-2,69336295381023E-11;
-4,30192317743613E-11;
-4,37646867076541E-11;
-3,45517904037179E-11;
-2,41602867477133E-11;
-1,92146174571741E-11;
-1,86198155675652E-11;
-1,78540352212218E-11;
-1,30596215962259E-11;
-3,45438078868229E-12;
6,00856923311311E-12;
9,93111620472879E-12;
1,07399432272362E-11;
1,36456217103E-11;
2,14695961953131E-11;
3,35534032393103E-11;
4,36851340878655E-11;
4,33224029129108E-11;
2,89527521136275E-11;
5,83775256089336E-12;
-1,68938094516455E-11;
-3,09633728096725E-11;
-3,23086353983045E-11;
-2,53051514477275E-11;
-1,89243454557257E-11;
-1,65625049392021E-11;
-1,58256867510833E-11;
-1,55871488411618E-11;
-1,25506765513609E-11;
-4,90163376063072E-12;
1,87183617329986E-12;
5,605455015847E-12;
7,29817013951648E-12;
9,78376029056026E-12;
1,63462154965854E-11;
2,53753144682614E-11;
3,45659701616821E-11;
3,59319308949058E-11;
2,55064782083238E-11;
9,0193155717301E-12;
-8,74781083636235E-12;
-2,0281184943175E-11;
-2,25020548887982E-11;
-1,92362591265702E-11;
-1,55855125611154E-11;
-1,40064484341588E-11;
-1,34831310706371E-11;
-1,3805850232346E-11;
-1,12867981304568E-11;
-5,78392722418317E-12;
-6,48020896885455E-13;
3,11979151748166E-12;
3,89743837937365E-12;
5,37393544351789E-12;
1,09301359096082E-11;
1,87838609266992E-11;
2,59564429877081E-11;
2,77458467072478E-11;
2,22939497794931E-11;
1,12468379995772E-11;
-1,3455624175722E-12;
-1,06226828481089E-11;
-1,43411227248225E-11;
-1,37498307117392E-11;
-1,23257436529825E-11;
-1,14806554338895E-11;
-1,19173870017836E-11;
-1,20897504765666E-11;
-9,69422329286836E-12;
-6,47559854821272E-12;
-3,25910460885867E-12;
-9,493937832836E-13;
5,42465293677474E-13;
3,05804277472323E-12;
6,66621887704081E-12;
1,20605904394578E-11;
1,78440976267488E-11;
2,05157658263115E-11;
1,77882612170132E-11;
1,12701293647442E-11;
3,91782847025684E-12;
-2,65868079121259E-12;
-5,80013083736023E-12;
-7,26579562089601E-12;
-8,78142965451977E-12;
-9,02167620327975E-12;
-9,59086385663608E-12;
-1,03451595237665E-11;
-9,7721278658772E-12;
-8,10139030923173E-12;
-5,06403326645528E-12;
-2,73040162587342E-12;
-1,51761877481944E-12;
7,57732810944726E-13;
3,04468815926212E-12;
6,78144638481318E-12;
1,14885544620845E-11;
1,4031755693785E-11;
1,5035968179687E-11;
1,3406861896538E-11;
8,93378962823273E-12;
4,29928042736361E-12;
3,16428566492831E-13;
-3,44116191213929E-12;
-5,91944119527519E-12;
-6,60466052541275E-12;
-7,21878313101253E-12;
-7,89305003277015E-12;
-8,28807739100523E-12;
-8,22365722404713E-12;
-6,63748111635395E-12;
-5,31821928000834E-12;
-4,17867374496772E-12;
-1,54501641785728E-12;
8,52290132533974E-13;
2,99614059936042E-12;
5,81062871204237E-12;
9,1859101585359E-12;
1,25773411693707E-11;
1,40727113555336E-11;
1,29807371255121E-11;
1,00547527190518E-11;
5,53108583047899E-12;
6,18802926909663E-13;
-2,86465746175587E-12;
-4,82937039661497E-12;
-5,8049474315385E-12;
-6,55365576694432E-12;
-7,74473450779183E-12;
-8,25633252092036E-12;
-7,60369269747946E-12;
-6,85254476246118E-12;
-5,44936638504479E-12;
-2,82285363481291E-12;
-2,03373763204232E-12;
-2,658998763199E-12;
6,55946227397728E-13;
4,98570673543432E-12;
8,94231552924312E-12;
1,44658368716642E-11;
1,54124794610747E-11;
1,34355944390008E-11;
1,02518839071549E-11;
3,56554841593275E-12;
-1,28000288798723E-12;
-3,67887468536241E-12;
-4,69691559744979E-12;
-5,33937142848395E-12;
-7,3739270606015E-12;
-8,41160472190841E-12;
-8,82704222481906E-12;
-8,67440568629494E-12;
-6,58639016936376E-12;
-5,00155137568342E-12;
-5,02467240532345E-12;
-4,84092316242022E-12;
-3,65438515984848E-12;
2,01405534574328E-13;
6,99915027745325E-12;
1,41518896210931E-11;
1,83996947720822E-11;
1,82410932813766E-11;
1,39932082053538E-11;
6,54718501369879E-12;
1,167326836622E-12;
-1,140601267681E-12;
-2,94576002411359E-12;
-3,89888466399006E-12;
-5,62949144180091E-12;
-8,37155414929504E-12;
-1,02907818239633E-11;
-9,2594405850107E-12;
-6,66772702087223E-12;
-6,35527335559577E-12;
-6,6882128103487E-12;
-6,4943641951081E-12;
-6,68483304046963E-12;
-3,14664187883729E-12;
4,61635177005061E-12;
1,30549065768428E-11;
2,02192524725475E-11;
2,08672388919016E-11;
1,55019236987754E-11;
9,03064525925622E-12;
3,03656169649571E-12;
-3,63120285111293E-13;
-1,67633782226269E-12;
-2,58767049963764E-12;
-4,10687971971938E-12;
-7,34037582271946E-12;
-9,78818467278704E-12;
-9,56096763111949E-12;
-8,47572089769612E-12;
-7,14756396300594E-12;
-7,21059813979546E-12;
-8,52739056694687E-12;
-8,60331858853077E-12;
-6,01971145526632E-12;
3,02407434023395E-12;
1,47934763377071E-11;
2,13872992534446E-11;
2,22275056281851E-11;
1,78335704449349E-11;
9,88839784591161E-12;
3,10769627150805E-12;
4,74841700310147E-13;
-4,59982177017873E-13;
-2,33329336661271E-12;
-4,50317658665372E-12;
-7,08918845366117E-12;
-9,47150856231624E-12;
-1,05007113670743E-11;
-8,81184795487542E-12;
-6,46137749228744E-12;
-8,43208742267641E-12;
-1,10733708275023E-11;
-1,07942762669299E-11;
-8,33433286091789E-12;
4,99617156462263E-13;
1,36161749135499E-11;
2,2050706608507E-11;
2,33554498427469E-11;
1,9692878610559E-11;
1,22321185550692E-11;
4,5338612739474E-12;
1,28432521666544E-12;
9,31228557470905E-14;
-1,50415768632638E-12;
-3,17252938244905E-12;
-6,81735795956763E-12;
-1,03797354501999E-11;
-1,06030017397099E-11;
-8,9690264507696E-12;
-8,12230064658877E-12;
-8,93317656037239E-12;
-1,15055082150847E-11;
-1,32222795229293E-11;
-9,08902455714003E-12;
3,42312954195797E-13;
1,23442901459269E-11;
2,26221378301922E-11;
2,47176706027094E-11;
1,97268961711348E-11;
1,24962796539673E-11;
5,97084063117412E-12;
1,66840589465713E-12;
7,45224727577255E-13;
4,52148348430225E-13;
-2,87981857443344E-12;
-6,67306115599007E-12;
-9,6301032413796E-12;
-1,04701700100414E-11;
-9,03775092260139E-12;
-8,57263826797367E-12;
-9,64066707321971E-12;
-1,26771259769489E-11;
-1,46674702728829E-11;
-1,06114908155391E-11;
-6,02263041351666E-13;
1,20163440375906E-11;
2,13569152727743E-11;
2,35211997768331E-11;
1,99360980665882E-11;
1,30695679182354E-11;
6,35324121853607E-12;
3,01506887141392E-12;
1,68763888907649E-12;
1,10658646883239E-13;
-2,17630626589103E-12;
-6,37120653290501E-12;
-1,03521713657857E-11;
-1,04087869711661E-11;
-8,64023982077063E-12;
-7,96964093766527E-12;
-9,77497744111747E-12;
-1,37600738898926E-11;
-1,48166629877296E-11;
-1,10127865041712E-11;
-2,31058736376293E-12;
1,07842943973727E-11;
2,08031440660118E-11;
2,40460905241335E-11;
2,14553382892163E-11;
1,38538434368546E-11;
6,65747081258043E-12;
3,12024191002321E-12;
1,67739755135347E-12;
9,59208148080617E-13;
-9,51614931486183E-13;
-5,41370511629504E-12;
-9,67806296540967E-12;
-9,8519731569588E-12;
-8,20172526067648E-12;
-8,6078687286178E-12;
-1,04358532564264E-11;
-1,33737519315898E-11;
-1,50892628081841E-11;
-1,16514244178971E-11;
-2,37562702361965E-12;
1,05003620224596E-11;
2,03374728189786E-11;
2,34884405942998E-11;
2,06859584043831E-11;
1,2978447869289E-11;
6,03604039314021E-12;
3,4280563951835E-12;
2,34803394782868E-12;
8,8804949827937E-13;
-1,59542052546705E-12;
-5,31263428666013E-12;
-8,17523685524618E-12;
-8,96710096976034E-12;
-8,03595478648509E-12;
-7,24256241074742E-12;
-9,89308784213668E-12;
-1,39348349857963E-11;
-1,53680062112902E-11;
-1,26261727388106E-11;
-3,65739266070463E-12;
8,87045888390198E-12;
1,95182020163171E-11;
2,42688299519451E-11;
2,09395940330281E-11;
1,36152725211465E-11;
7,23176389414747E-12;
3,34059755167239E-12;
2,28750058551703E-12;
1,43949722867965E-12;
-8,59463350161644E-13;
-4,18722065650629E-12;
-8,19826545050359E-12;
-9,53295587411589E-12;
-8,01233586858873E-12;
-7,58245248943573E-12;
-9,75602580191335E-12;
-1,35102436779666E-11;
-1,58186144612833E-11;
-1,32063497791104E-11;
-3,66178071893237E-12;
9,17517666047388E-12;
1,92546628226434E-11;
2,30976420578735E-11;
1,96135153112035E-11;
1,2578580445937E-11;
6,49250061944228E-12;
3,38649599144371E-12;
2,86083143520436E-12;
1,93265834242953E-12;
-5,17415914451109E-13;
-4,11960109396186E-12;
-7,5162749657649E-12;
-8,2221654311297E-12;
-7,15376957995961E-12;
-7,2601019587148E-12;
-9,92718523076506E-12;
-1,31085263025446E-11;
-1,4474664786459E-11;
-1,23171594049565E-11;
-3,47958479578441E-12;
8,68177694765915E-12;
1,82261812745511E-11;
2,15839453776296E-11;
1,82372184510054E-11;
1,25075061526359E-11;
6,68216851598377E-12;
3,72731595940463E-12;
3,50488288119243E-12;
2,29147462930446E-12;
-3,8018893490234E-13;
-4,30902180339473E-12;
-7,0603077556549E-12;
-7,59655083998701E-12;
-7,10704051819385E-12;
-7,45128110338848E-12;
-9,34347702682133E-12;
-1,16130904014441E-11;
-1,43661368425399E-11;
-1,25993952656661E-11;
-3,99105344757165E-12;
7,14044507920189E-12;
1,72726313182883E-11;
2,06860050981413E-11;
1,73192109542553E-11;
1,17835379191642E-11;
6,32088593762957E-12;
3,79908813447702E-12;
3,66369969486392E-12;
3,06145983490471E-12;
2,92561514008623E-13;
-3,71726574786003E-12;
-5,98315579291426E-12;
-6,73293388404742E-12;
-6,55306868887783E-12;
-6,32587234952036E-12;
-8,21832798863189E-12;
-1,13954396809606E-11;
-1,36115957788623E-11;
-1,20776286983869E-11;
-4,34973061900312E-12;
6,48111020530451E-12;
1,47897213386191E-11;
1,88489629201318E-11;
1,69891200938143E-11;
1,09035045566987E-11;
6,38453821893017E-12;
3,34747729143781E-12;
2,05462395549478E-12;
2,34659954084644E-12;
5,39674043154009E-13;
-2,82417259976089E-12;
-6,10519957655262E-12;
-6,73681756771936E-12;
-6,05919074035656E-12;
-6,32768196572443E-12;
-6,9924739995162E-12;
-1,10747342324304E-11;
-1,40638190811261E-11;
-1,16598662205801E-11;
-4,90505090720005E-12;
5,89243541867702E-12;
1,41953606872022E-11;
1,68748364297142E-11;
1,55055981070153E-11;
1,07210879453126E-11;
5,93986370015455E-12;
4,00884379251109E-12;
3,60454880119806E-12;
2,71820341408019E-12;
2,98418757382635E-13;
-3,24129517511521E-12;
-5,09307936849889E-12;
-5,41564406933515E-12;
-4,89932707807637E-12;
-4,75676280500498E-12;
-6,85885137965104E-12;
-9,94928698979136E-12;
-1,25012523456827E-11;
-1,05517713741003E-11;
-3,91536623686571E-12;
4,62652708483417E-12;
1,28379898321322E-11;
1,56568351664098E-11;
1,44471096048449E-11;
1,07170488711078E-11;
5,56295971252674E-12;
3,3355224843818E-12;
2,95675499617332E-12;
3,56306679981077E-12;
1,76661439561222E-12;
-2,32036509007435E-12;
-4,3078226464196E-12;
-5,65626758016852E-12;
-5,36344573658247E-12;
-4,88882898723508E-12;
-6,31947929403077E-12;
-9,07710755086587E-12;
-1,22940556269487E-11;
-1,12720911299562E-11;
-4,27746513147157E-12;
4,84250094484786E-12;
1,17476316730147E-11;
1,52331755634992E-11;
1,36746159325868E-11;
9,08426912150396E-12;
5,35614282481488E-12;
2,81162497009335E-12;
2,8499205220656E-12;
2,6198513844028E-12;
5,67578401703372E-13;
-1,22296585159151E-12;
-3,39396078601563E-12;
-4,13458815556901E-12;
-3,30342173872207E-12;
-4,35597057602331E-12;
-6,80911237941454E-12;
-9,05520127402841E-12;
-1,072208634721E-11;
-9,4748603252197E-12;
-4,07070327985379E-12;
3,85186649528669E-12;
1,08785775663293E-11;
1,37201362322948E-11;
1,20076514419389E-11;
8,2324091412339E-12;
4,90603378407298E-12;
3,29469509654128E-12;
3,71899638283554E-12;
3,16871558023646E-12;
2,52136693369855E-13;
-1,71907543494306E-12;
-2,64253312111397E-12;
-4,22944900878164E-12;
-4,31392167163937E-12;
-3,63664775444892E-12;
-4,86415026530958E-12;
-7,64147006877599E-12;
-1,07804884764618E-11;
-9,51141512686446E-12;
-3,34377913219947E-12;
3,24841678239888E-12;
9,03512967752989E-12;
1,18517980458374E-11;
1,0900330899493E-11;
7,68420146728704E-12;
4,2413720811622E-12;
3,44861850729775E-12;
3,40281056804924E-12;
2,25422811209565E-12;
8,99500628958388E-13;
-1,45710451375587E-12;
-2,81373201380057E-12;
-3,2335253554928E-12;
-3,98714059987653E-12;
-3,93887840061591E-12;
-5,15861792602931E-12;
-7,18728310286855E-12;
-8,84866888840258E-12;
-8,30399139109896E-12;
-3,08490643452332E-12;
3,00813282658646E-12;
8,18497335329697E-12;
1,05299947570971E-11;
9,41366117450778E-12;
7,54833099044743E-12;
3,97413759006209E-12;
2,98975938747426E-12;
3,77717425050388E-12;
2,53898857479549E-12;
2,45118881410784E-12;
6,42853453333366E-14;
-3,23807452149956E-12;
-2,85232358296006E-12;
-2,46120831891526E-12;
-3,27511767762739E-12;
-4,6319480251216E-12;
-6,63749561501478E-12;
-8,12887414760937E-12;
-7,65123600122316E-12;
-3,72130227246731E-12;
1,99192424195637E-12;
6,57952263951297E-12;
9,28887142593965E-12;
8,84288165828949E-12;
6,25213366515859E-12;
3,71889031567221E-12;
1,920697151736E-12;
1,96438115538223E-12;
2,36413478156646E-12;
1,68155789824844E-12;
0,00933343404626749;
0,0226297298230454;
0,0163727372730022;
0,00943309617427563;
0,0121693917827718;
0,00702616732749037;
0,00563481712404764;
0,00458271004575561;
0,000840500083366598;
0,00103239236863055;
-0,00119043949407651;
-0,00199195265135024;
-0,00280713692681125;
-0,00455368131278597;
-0,00488732499367066;
-0,00585590070444469;
-0,00594121727039197;
-0,00618248831984692;
-0,00699357666543055;
-0,00792070354544257;
-0,0186823220405282;
-0,03287261853802;
-0,0268912366716421;
-0,0195416193224262;
-0,0213770564551112;
-0,0154564641366742;
-0,0134652513037466;
-0,0120401815565524;
-0,00788855337489081;
-0,00745106944393206;
-0,00448501413627702;
-0,00296653461026978;
-0,00164594447181342;
0,000462913915425655;
0,00122349913602575;
0,00282933327395112;
0,00371298473166713;
0,00460965925192364;
0,00563250021054105;
0,00625545797480244;
0,0071231625725233;
0,00765582693732091;
0,00811173707101361;
0,00845133842482993;
0,0085829306495055;
0,00874696649653421;
0,0087940976871357;
0,00883334036009234;
0,00881318502180479;
0,00869713899812078;
0,00854916547077042;
0,00833669632984115;
0,00811802369561753;
0,00787519300903859;
0,00758857350948194;
0,00726001550295928;
0,00688233569383077;
0,00650195856077607;
0,00614647257751012;
0,00582730148356516;
0,00552411953771234;
0,00518826670816541;
0,00479080907862358;
0,00432851918593531;
0,00383390464342857;
0,0033487258583872;
0,00289510474097399;
0,00247007577449437;
0,00205217327120407;
0,00162772693963331;
0,00120267747086963;
0,000796410908983331;
0,000424205893898026;
8,15129245356466E-5;
-0,00025079685865687;
-0,000587928703379596;
-0,000923219384265543;
-0,00122787322514363;
-0,00147144717512845;
-0,00164650106716492;
-0,00177882974250536;
-0,00191311615545558;
-0,00208412525309415;
-0,00229483813713946;
-0,00251713562127198;
-0,00271396317760164;
-0,00286501300056861;
-0,00297676116210518;
-0,00307100037739334;
-0,00316325303988998;
-0,00324985338875073;
-0,00331370507265339;
-0,00334237270431336;
-0,0033415617597504;
-0,00333130895561234;
-0,00332760054930478;
-0,00332533125892739;
-0,00329839585310171;
-0,00321882927090073;
-0,0030807357870853;
-0,00290974681421453;
-0,00274936274030429;
-0,00263353871982282;
-0,00256575945319511;
-0,00251988196029732;
-0,00246118795009306;
-0,0023708594166062;
-0,00225549630130428;
-0,0021361444590377;
-0,0020278152602681;
-0,00192720927815705;
-0,00181823144042076;
-0,00168916947183029;
-0,00154545546496225;
-0,00140604016725384;
-0,00128595624153865;
-0,0011802072295684;
-0,00106389252639452;
-0,000910343536184091;
-0,000713749944883305;
-0,000498056806151881;
-0,000304018778167662;
-0,000163295927480482;
-7,87299007251183E-5;
-2,51932303003113E-5;
3,05146961273432E-5;
0,000106587877032476;
0,000197273052686384;
0,000283237283681136;
0,000350860475550002;
0,000403770484638432;
0,000457625882294267;
0,000523949437133646;
0,000598144954015581;
0,000662926778060955;
0,000704704934723292;
0,000728692039002016;
0,00075875301241424;
0,000820371726690617;
0,000919445961669628;
0,00103398509646619;
0,00112627443030486;
0,00116714154919528;
0,00115439210148842;
0,0011119716611573;
0,00107132740454708;
0,00104983274521222;
0,00104245925707351;
0,00103148912900207;
0,00100453627943082;
0,000965296541040437;
0,000928658198039083;
0,000905618241167537;
0,000892125386758588;
0,000872296913484363;
0,000833688301535525;
0,00078134384684141;
0,000737630196608932;
0,00072637467191208;
0,000753157544707386;
0,00079762782177035;
0,000824837987687454;
0,000807789990187739;
0,000744528938727532;
0,000657329514293465;
0,000575382249049995;
0,000514790533837272;
0,000470875927488378;
0,000427201987721496;
0,000372271470769678;
0,000309465662326055;
0,000252501660022705;
0,000211474149680254;
0,00018255163218257;
0,000150968829487045;
0,000105142344029252;
4,96351710718733E-5;
4,98058292685404E-6;
-6,968548446801E-6;
1,87906787913261E-5;
6,33545763808347E-5;
9,43884954485354E-5;
8,69068684116906E-5;
3,89974975383595E-5;
-2,89582507302305E-5;
-9,02391243868506E-5;
-0,000130181734031854;
-0,000153234751462403;
-0,000174642922291785;
-0,000205099855695384;
-0,000241630851725523;
-0,000271779301251141;
-0,000286421072387981;
-0,000289205826298486;
-0,000293796647241464;
-0,000310924917725547;
-0,000336522254581217;
-0,000351901785107212;
-0,000337183356646121;
-0,000287913769791876;
-0,000221497564963108;
-0,000167593375699819;
-0,000149113142322449;
-0,000167871157857001;
-0,000205323627019379;
-0,000237152992077602;
-0,000250056588726783;
-0,000248163957760207;
-0,000245434856867888;
-0,000251664650970783;
-0,000264187268897247;
-0,000271702779414928;
-0,000265949354552185;
-0,000250286955348445;
-0,000237172031980974;
-0,000236379953086745;
-0,00024422632634862;
-0,000243749718311368;
-0,000216917041641986;
-0,000159707324791505;
-8,79268956364334E-5;
-2,84756309904188E-5;
-2,11067587145791E-6;
-1,0452191191621E-5;
-3,66778468095069E-5;
-5,87496702990119E-5;
-6,46133589370457E-5;
-5,79905401152035E-5;
-5,1485192123359E-5;
-5,39239483401215E-5;
-6,28653824893127E-5;
-6,80716032014114E-5;
-6,20551710015432E-5;
-4,78211847304235E-5;
-3,65757613210509E-5;
-3,70962567463173E-5;
-4,60200561227635E-5;
-4,80253586929675E-5;
-2,68387717156143E-5;
2,11848103094274E-5;
8,18456899671679E-5;
0,00013097803767395;
0,000149959861057126;
0,000137384299781148;
0,000108413751686126;
8,28811552413785E-5;
7,16408399087443E-5;
7,13828057800767E-5;
7,08332210786167E-5;
6,21135986408184E-5;
4,7448607273516E-5;
3,60431199226439E-5;
3,46297481771451E-5;
4,05430750122389E-5;
4,37821488556827E-5;
3,65258108931694E-5;
2,18103514720994E-5;
1,33535191366967E-5;
2,57090843058478E-5;
6,21420790290641E-5;
0,000109988379560519;
0,000147703315123529;
0,000158702382960025;
0,000141756925550762;
0,00011039906926228;
8,23073567967613E-5;
6,71526263371797E-5;
6,19947228596757E-5;
5,68128983187537E-5;
4,46120954787488E-5;
0,00936081279036774;
0,0226430250164957;
0,0163810775211324;
0,00944324297632721;
0,0121792344037708;
0,00702666255320328;
0,00561961633764237;
0,00455761729055961;
0,000824200116848176;
0,00104644721326213;
-0,00113568546962667;
-0,00190521613810561;
-0,00271179579824314;
-0,00447419679599491;
-0,00483620721984093;
-0,0058300596783469;
-0,00592904074609231;
-0,0061749691503772;
-0,00699055093822092;
-0,00792817739441426;
-0,00937112407532146;
-0,0102769553290884;
-0,010556216090459;
-0,0101438042190365;
-0,00924223431692562;
-0,00847197759077786;
-0,0078846881801232;
-0,00751910195761994;
-0,0071005761341139;
-0,00644310278360273;
-0,00566264213260387;
-0,00491600933621448;
-0,00440135107737032;
-0,00405114823246099;
-0,00364722911855924;
-0,0030302710522984;
-0,00224207722293247;
-0,00158894197167097;
-0,00137931336286633;
-0,00169085099593091;
-0,00226242695895872;
-0,00263232106441502;
-0,00245347593065573;
-0,00170008185185072;
-0,000665347382536247;
0,000271499885286711;
0,000909148508279615;
0,00131647946343314;
0,00171513481303372;
0,00225428860660788;
0,00288323790566627;
0,00341481469007202;
0,0037108779697032;
0,00382112411000016;
0,00394269448977551;
0,00423492514792944;
0,00464782065632792;
0,00492181790649304;
0,00477710895796377;
0,00414819661213138;
0,00327567804007574;
0,00257175219208277;
0,00235391075608159;
0,00264498833374184;
0,00318523103955327;
0,0036379164258656;
0,00382357237777268;
0,00380681478989852;
0,00378643569911845;
0,00389762744983571;
0,00409684000988661;
0,00421836016443753;
0,00414092524442322;
0,00390980823062106;
0,00370172294710312;
0,00365909557230501;
0,00373765993362598;
0,00370693737043436;
0,00331854293380891;
0,00251510788454725;
0,00151124640506947;
0,000673677625273932;
0,000284544553083585;
0,000363936564251857;
0,000681097918136671;
0,000937051296836654;
0,000972371215534793;
0,0008439953001751;
0,000727643053226314;
0,000742697434902099;
0,00085039536295853;
0,000904031401709239;
0,000796254846458968;
0,000566748221867876;
0,000370988678691739;
0,000333842507640062;
0,000415286704980636;
0,000411213086799531;
0,000102103384180865;
-0,000562883179295796;
-0,010728372975242;
-0,0247013100664239;
-0,0187178951103573;
-0,0116319478727873;
-0,0140058602396975;
-0,00854780206820162;
-0,00703001734408311;
-0,0059906431262667;
-0,00224683602595338;
-0,00231869427197234;
0,000108171586489576;
0,00106885862529915;
0,00190406889344619;
0,00356584458581288;
0,0038453501924716;
0,00489880979169399;
0,00517221523001883;
0,00552581348953913;
0,00618144011937625;
0,00664086165782341;
0,00745379787795675;
0,00786606351839763;
0,00800894849600379;
0,00782942942881304;
0,00734426564178673;
0,00693797890359057;
0,00654170589667601;
0,0062473112544534;
0,00592453195970217;
0,00548011088614972;
0,00499028330354958;
0,00448354307023069;
0,00406365543895982;
0,00369200100059998;
0,00327799879503802;
0,00276945057684396;
0,0021842745971956;
0,00167159531815818;
0,00136633426795858;
0,00130272687245297;
0,0013637251058589;
0,00133660626272183;
0,00106475544313794;
0,000532686195006282;
-0,000126532318288883;
-0,000736864028217754;
-0,00120065161601416;
-0,00154098643063768;
-0,00185530772225961;
-0,00221298346039104;
-0,00259720244933469;
-0,00293057852057532;
-0,00315553493435348;
-0,00329670458030362;
-0,00344182237785942;
-0,0036585611935071;
-0,00391742089657529;
-0,00409313778184995;
-0,00405388033528159;
-0,0037707873024926;
-0,00336106387855513;
-0,00302426771078036;
-0,00291547815048775;
-0,00304874973939553;
-0,00330064986995779;
-0,00350724557775665;
-0,0035770779930759;
-0,0035357678485606;
-0,00347659168641607;
-0,00346693834729759;
-0,00349180035416505;
-0,00347817498965683;
-0,00337267926411705;
-0,00319915334683156;
-0,00304177434848909;
-0,00296564675009141;
-0,00294394668996738;
-0,0028594964836205;
-0,00258845567464685;
-0,00210398153461483;
-0,00151650549976359;
-0,00101372441626734;
-0,000741294406431652;
-0,000712058873378145;
-0,00080979204846502;
-0,000880478921266577;
-0,000838464945754508;
-0,000708068916074986;
-0,000576788888910678;
-0,000507356721042887;
-0,00048478492768741;
-0,00043956987885626;
-0,000320761710994496;
-0,000150078575811753;
-6,03783110089475E-6;
5,05780881840712E-5;
4,50463799668604E-5;
8,72825066044165E-5;
0,000293571810090217;
0,000689684496304253;
0,0011733121308202;
0,00157016899592956;
0,00174532779291509;
0,00168774105426031;
0,00150650359079592;
0,00134559561471722;
0,00128501520379187;
0,00130227486722477;
0,00131628521990565;
0,0012693793011327;
0,0011765014828866;
0,0011033629192138;
0,00109823444430298;
0,00114152798356972;
0,00116059366532673;
0,00109908781545982;
0,00098052846331197;
0,000907028638430683;
0,0009867021211546;
0,00124385350064495;
0,00158422189145534;
0,00184699947284611;
0,00190788688334099;
0,00175716775892802;
0,00149604062516428;
0,00125764231819365;
0,00111570781649641;
0,00104922365961786;
0,000983238815834177;
0,000864748139704976;
0,000708023602103052;
0,000574228347852836;
0,000508268849218829;
0,000492198381183342;
0,00045890181838696;
0,00035613713303047;
0,000205184214446236;
9,97315444533476E-5;
0,000139084594697637;
0,000345575658478757;
0,000632655623478611;
0,000852739166635905;
0,00089183940132116;
0,000741122255929016;
0,000493356410860706;
0,000270340131328336;
0,000139182625330574;
8,01076415698905E-5;
2,40988209907289E-5;
-7,74547597604055E-5;
-0,000211309412885646;
-0,000321234070921853;
-0,000366009347112523;
-0,000362152895405605;
-0,000371366212989217;
-0,000441878519942088;
-0,000554751015760862;
-0,00062484237620355;
-0,000561775955859592;
-0,000345294574690231;
-5,43283245329217E-5;
0,000176661020403757;
0,00024389669991949;
0,000139351971525738;
-5,26452294353603E-5;
-0,000221573367856304;
-0,000306846867327709;
-0,000326913952687706;
-0,000344809131228364;
-0,000404737523228883;
-0,000494473333556408;
-0,000562681317244723;
-0,000571767379511966;
-0,000536748047854092;
-0,000513828949477488;
-0,0005471060071857;
-0,000619790972344563;
-0,000655036941116309;
-0,000571147746408893;
-0,000349788880087326;
-6,2261793628698E-5;
0,000170009502822473;
0,000253401041777416;
0,00018078338012855;
2,83085046798346E-5;
-0,000104425149291794;
-0,000163049842159274;
-0,000164515159469079;
-0,000165818501260059;
-0,000206722221238768;
-0,000275915433595579;
-0,000326789556114082;
-0,000325214978053535;
-0,000284622560826809;
-0,000255696771681557;
-0,000278332885636099;
-0,000337686019526817;
-0,000364865376108516;
-0,00028652464248695;
-8,61081235899134E-5;
0,000172589973322604;
0,000380897356754233;
0,000455116269186827;
0,000389038890953294;
0,000250936557709318;
0,000129887454705395;
7,43303104048675E-5;
6,88733347331132E-5;
6,24492241689337E-5;
1,96356685215167E-5;
-4,91446602654247E-5;
-0,000101875845148125;
-0,000107786819651828;
-7,87558297110556E-5;
-6,00871150095262E-5;
-8,7562860108243E-5;
-0,000148164108602093;
-0,000180643035337903;
-0,000119691611528016;
4,95270990780868E-5;
0,000270430696531391;
0,000446591202262889;
0,000503822260153025;
0,000436764797080486;
0,000306091975803575;
0,000190773470790112;
0,000133570307492356;
0,000120601381283432;
0,000106482751535886;
5,99149234673919E-5;
-9,59812114855051E-6;
-6,45176074598877E-5;
-7,73541526213921E-5;
-5,85408433230772E-5;
-4,8251394213486E-5;
-7,83380895870031E-5;
-0,000137530355955718;
-0,000171895018129573;
-0,000123826901451565;
1,98286964166431E-5;
0,000209314600086358;
0,000359814398621085;
0,00040614145503597;
0,000343688769207777;
0,00022585707482365;
0,000121980171339855;
6,94180874934048E-5;
5,57261388633423E-5;
4,09051287540261E-5;
-2,46992544792579E-6;
-6,58301254819138E-5;
-0,000115954243424444;
-0,000128522462143706;
-0,000112630966566783;
-0,000103601137381317;
-0,00012955816438099;
-0,000180880361968094;
-0,000210557849641213;
-0,000168284206466468;
-4,25188429222753E-5;
0,000123398906172574;
0,000255583558753214;
0,000297308554780416;
0,000244647313691346;
0,00014412678295337;
5,600087795716E-5;
1,25595604327676E-5;
2,73329480136495E-6;
-8,39785850384166E-6;
-4,4625266829435E-5;
-9,82920227472974E-5;
-0,000140275163464646;
-0,000149261674223768;
-0,000133097777195908;
-0,000122532441795291;
-0,000142164273734169;
-0,000183890467500772;
-0,000207174528888776;
-0,000168543679467966;
-5,79704852644304E-5;
8,72100252960485E-5;
0,000203335760216327;
0,000241586410995854;
0,000198665792450733;
0,00011467897539295;
4,14142153180037E-5;
6,4580079684291E-6;
6,01307707833853E-8;
-7,93458352158849E-6;
-3,79240426741665E-5;
-8,31175916722817E-5;
-0,000118235553147697;
-0,000124780929947255;
-0,000109430686949598;
-9,86523953144742E-5;
-0,000113728153210947;
-0,000147935349550907;
-0,000166733904833698;
-0,000132991016312456;
-3,80815462293201E-5;
8,62346457168051E-5;
0,000185782328591497;
0,000219072870586494;
0,000183392315623051;
0,00011289689754913;
5,15465407784327E-5;
2,25988829493068E-5;
1,75561855037089E-5;
1,06944669417445E-5;
-1,52425995628512E-5;
-5,42820811466117E-5;
-8,47214853665617E-5;
-9,06829574251677E-5;
-7,77626814092187E-5;
-6,84565714358124E-5;
-8,09584281884857E-5;
-0,000109794486138899;
-0,00012594032902808;
-9,81040292337078E-5;
-1,89558770305671E-5;
8,48733523427087E-5;
0,000167935629788668;
0,000195481399884758;
0,000165324674089679;
0,000106149094394052;
5,47267563879144E-5;
3,03560823251795E-5;
2,57111766584447E-5;
1,91494988442345E-5;
-3,7061618885596E-6;
-3,76542077084688E-5;
-6,43009580397618E-5;
-7,01911600870868E-5;
-5,99359249145284E-5;
-5,23819615606783E-5;
-6,2875858857864E-5;
-8,70698977108332E-5;
-0,000100978346967176;
-7,86531885419231E-5;
-1,39571822289957E-5;
7,1155540498804E-5;
0,000139197786928488;
0,000161561933409418;
0,000136533667940672;
8,77986843961672E-5;
4,55781338899764E-5;
2,55746479718283E-5;
2,154664723097E-5;
1,55785549705988E-5;
-4,09136782667075E-6;
-3,29849113426346E-5;
-5,57466019869641E-5;
-6,11460316934914E-5;
-5,29051877243141E-5;
-4,65455091761604E-5;
-5,4810246968418E-5;
-7,43593016053792E-5;
-8,57740978285961E-5;
-6,79579004502212E-5;
-1,58630907137506E-5;
5,27861973283527E-5;
0,000107707175346166;
0,000125846161086652;
0,000105907562715806;
6,70497301360661E-5;
3,35715996116041E-5;
1,79370114905465E-5;
1,49006005742941E-5;
9,92418034023337E-6;
-6,39574693615378E-6;
-3,02523657459656E-5;
-4,90565693352174E-5;
-5,36037298124624E-5;
-4,6818491425073E-5;
-4,12147342655959E-5;
-4,71724595489993E-5;
-6,22437179975573E-5;
-7,11146755499159E-5;
-5,70558694974284E-5;
-1,60060522235714E-5;
3,81070777073685E-5;
8,14695049219999E-5;
9,60109849792289E-5;
8,08063596065633E-5;
5,09480343672389E-5;
2,54264189118759E-5;
1,38137617503991E-5;
1,17742118865077E-5;
7,80700887525946E-6;
-5,38097564253537E-6;
-2,45995596649814E-5;
-3,97570378405633E-5;
-4,34773807088606E-5;
-3,7975071325179E-5;
-3,3064667571501E-5;
-3,69968273553632E-5;
-4,81050063335093E-5;
-5,47326448635881E-5;
-4,40484247173607E-5;
-1,2876123873226E-5;
2,82358296692851E-5;
6,12336578691654E-5;
7,24818671667213E-5;
6,1380933061225E-5;
3,94031681433518E-5;
2,08215201529443E-5;
1,26494821492947E-5;
1,13752732478843E-5;
8,2073431372504E-6;
-2,27476456919681E-6;
-1,74424650510409E-5;
-2,94400397563043E-5;
-3,25285289249723E-5;
-2,82955364438969E-5;
-2,41533914147522E-5;
-2,64500014397706E-5;
-3,41962461140847E-5;
-3,89655238159086E-5;
-3,13758898695738E-5;
-9,03892379279662E-6;
2,04777530239158E-5;
4,42039286064655E-5;
5,24153002751379E-5;
4,47956737796655E-5;
2,96226653566808E-5;
1,70144300029376E-5;
1,17408650100835E-5;
1,1030321472297E-5;
8,48607374414844E-6;
3,33878140355623E-7;
-1,13054980282246E-5;
-2,05616251464004E-5;
-2,31491328511881E-5;
-2,01080795984141E-5;
-1,67324993280447E-5;
-1,76851815972006E-5;
-2,25580178250549E-5;
-2,57504186144741E-5;
-2,09048307399227E-5;
-6,32845831024761E-6;
1,30146792905853E-5;
2,85975468312095E-5;
3,41119051466729E-5;
2,94851499457437E-5;
2,02022323163643E-5;
1,27572604768369E-5;
9,97238063415556E-6;
9,73468935777701E-6;
7,74413312076802E-6;
1,65901013486894E-6;
-6,85563651814294E-6;
-1,36763827598209E-5;
-1,57971659648523E-5;
-1,37851344045505E-5;
-1,10846026408429E-5;
-1,08799894378614E-5;
-1,32552393977622E-5;
-1,50569607835952E-5;
-1,25527265448207E-5;
-4,65838629826475E-6;
5,91202079021811E-6;
1,44742208000202E-5;
1,76721548589965E-5;
1,56400593919986E-5;
1,1447184018062E-5;
8,46025708628636E-6;
7,82943589502743E-6;
8,02285608523918E-6;
6,55721492406122E-6;
2,32381153661621E-6;
-3,41778982909248E-6;
-8,06640969750985E-6;
-9,73088788067962E-6;
-8,57477658868078E-6;
-6,44419414978025E-6;
-5,23955063327882E-6;
-5,45516978285815E-6;
-6,03225680887354E-6;
-5,49126791421735E-6;
-3,27504861367305E-6;
-1,76143861853318E-7;
2,40585521370189E-6;
3,63623631221449E-6;
3,82252005339413E-6;
3,9689114570193E-6;
4,77588733703847E-6;
5,97674606573825E-6;
6,5473207941425E-6;
5,5605941686916E-6;
2,95614075878477E-6;
-3,63877794250667E-7;
-3,11023965713321E-6;
-4,35284103141764E-6;
-3,91539707594814E-6;
-2,27940472008984E-6;
-2,42415737016922E-7;
1,36531475780771E-6;
1,83354815484508E-6;
7,33227620278028E-7;
-1,82943762790505E-6;
-5,02818694974618E-6;
-7,49249709484517E-6;
-7,93273743674025E-6;
-5,89858486615609E-6;
-2,1273720324268E-6;
1,83977972417105E-6;
4,55343798375465E-6;
5,42845849889533E-6;
4,85363812012897E-6;
3,64711633756218E-6;
2,39912611203381E-6;
1,28198174244827E-6;
4,07449016917141E-7;
2,33373031672496E-7;
1,42764358597596E-6;
4,12800548480096E-6;
7,23546893925114E-6;
8,56891101701048E-6;
6,10650454190497E-6;
-4,26289232980454E-7;
-8,86119023378763E-6;
-1,5528367929519E-5;
-1,73769067285743E-5;
-1,38412737927881E-5;
-7,10435331121319E-6;
-5,60978595299029E-7;
3,36976620427474E-6;
4,47791916051036E-6;
4,24775987567343E-6;
4,22120517099669E-6;
4,71912636827631E-6;
4,97634434734884E-6;
4,41755156532717E-6;
3,72925681537866E-6;
4,53189668712368E-6;
7,74467865257166E-6;
1,20599871300815E-5;
1,40966437060469E-5;
1,05274578312615E-5;
7,61404828069926E-7;
-1,19423387945316E-5;
-2,20420413837879E-5;
-2,50549555685913E-5;
-2,03251721539049E-5;
-1,1212517112684E-5;
-2,61407111811077E-6;
2,2738021036587E-6;
3,55744191151708E-6;
3,61631008476344E-6;
4,57603770233852E-6;
6,52763360693423E-6;
7,9321338881749E-6;
7,64695003486052E-6;
6,53964455112534E-6;
7,00460511281496E-6;
1,06023737564228E-5;
1,58700142909116E-5;
1,84703584501601E-5;
1,40303299213924E-5;
1,70081518041064E-6;
-1,43940899324333E-5;
-2,7225641713214E-5;
-3,11758197753736E-5;
-2,55205057250783E-5;
-1,45546524538698E-5;
-4,36167877633473E-6;
1,25705236480568E-6;
2,67033650798483E-6;
2,97220791600281E-6;
4,74631724524688E-6;
7,89019188353774E-6;
1,02393136963571E-5;
1,0192297546544E-5;
8,75528035986993E-6;
8,93589314076504E-6;
1,28094234379516E-5;
1,88044650939092E-5;
2,1845998817199E-5;
1,67474641697928E-5;
2,4543451403557E-6;
-1,6245987841486E-5;
-3,11814709370336E-5;
-3,58635338804331E-5;
-2,95194740479374E-5;
-1,71634762929699E-5;
-5,78370353498837E-6;
3,66483000576847E-7;
1,8695006313222E-6;
2,37246266458425E-6;
4,80521641149031E-6;
8,90505353902422E-6;
1,2015047073979E-5;
1,21724880388325E-5;
1,04845367301468E-5;
1,04286753284437E-5;
1,44815014260088E-5;
2,10039233698816E-5;
2,4376387492504E-5;
1,88052113079306E-5;
3,07763966884748E-6;
-1,753400312515E-5;
-3,40185863696815E-5;
-3,92512371375581E-5;
-3,24278907711413E-5;
-1,90909005508845E-5;
-6,88436693386035E-6;
-3,79011191572968E-7;
1,17729466167621E-6;
1,84158566554495E-6;
4,79128599999145E-6;
9,63361440214989E-6;
1,33378144449168E-5;
1,36666937977931E-5;
1,17955685306365E-5;
1,15449330173578E-5;
1,56919224540849E-5;
2,25648589186977E-5;
2,61693717138922E-5;
2,0286268095284E-5;
3,58640672041978E-6;
-1,83291596281313E-5;
-3,5877066429473E-5;
-4,15015175138911E-5;
-3,43820465057363E-5;
-2,04216782306708E-5;
-7,70272032825916E-6;
-9,95914451954934E-7;
5,81403107854741E-7;
1,37045075118751E-6;
4,71009996697176E-6;
1,01046028013692E-5;
1,42540547264669E-5;
1,47234627776122E-5;
1,27278107100274E-5;
1,23194689637076E-5;
1,64873682638466E-5;
2,35570782429059E-5;
2,73069281548023E-5;
2,12504595364512E-5;
3,9789576232814E-6;
-1,8713269748709E-5;
-3,69022778866442E-5;
-4,27795882366415E-5;
-3,55212253473769E-5;
-2,12455412771695E-5;
-8,28446291609465E-6;
-1,50761345983092E-6;
6,35688254129019E-8;
9,45142031887365E-7;
4,56297849431487E-6;
1,03425365753021E-5;
1,48062836707047E-5;
1,53884958890955E-5;
1,33194273189509E-5;
1,27869228235744E-5;
1,69143298858216E-5;
2,40494609437875E-5;
2,78701286355963E-5;
2,17590157146244E-5;
4,25990259732348E-6;
-1,87557905987794E-5;
-3,7222400644494E-5;
-4,32317176396094E-5;
-3,5967218240885E-5;
-2,16378906551239E-5;
-8,66383500038362E-6;
-1,92742987008139E-6;
-3,84549599242596E-7;
5,61663722404352E-7;
4,36050484643844E-6;
1,03799943886141E-5;
1,50441509344766E-5;
1,57145851010332E-5;
1,36161895187866E-5;
1,29896268640877E-5;
1,70259191980543E-5;
2,41156853250778E-5;
2,79438354583014E-5;
2,18783478844446E-5;
4,44312181834047E-6;
-1,85115749894382E-5;
-3,69468923603411E-5;
-4,29844605788257E-5;
-3,58244010862533E-5;
-2,16607408214737E-5;
-8,86535109539133E-6;
-2,26105098519665E-6;
-7,64445575572724E-7;
2,22259922144274E-7;
4,11821210144136E-6;
1,02526875364299E-5;
1,50189712791486E-5;
1,5755684174272E-5;
1,36651927704843E-5;
1,29710177210982E-5;
1,6874973715199E-5;
2,38270670888931E-5;
2,76093004461442E-5;
2,16724701506925E-5;
4,54411046667745E-6;
0,00931540549842961;
0,0225935556541241;
0,0163305849162235;
0,00939790872583195;
0,0121480213629228;
0,00701725587451899;
0,00563230302487667;
0,00458163182162352;
0,000840428141718604;
0,00103624169564696;
-0,0011804471783017;
-0,00197717594203154;
-0,00279157684308653;
-0,00454017304930887;
-0,00487455568878815;
-0,00583939268807318;
-0,00591797048237949;
-0,00615554965549082;
-0,00697237888875282;
-0,00791612851673112;
-0,00936624037401909;
-0,0102778847148133;
-0,0105593414117653;
-0,0101426682333666;
-0,00922848565431516;
-0,00843912239058324;
-0,00783312905501985;
-0,00745880255601773;
-0,00704837638647185;
-0,00641511419396711;
-0,00566582868570004;
-0,00494413063951158;
-0,00443791209136146;
-0,00407758629325196;
-0,00365140897755114;
-0,00301060250198565;
-0,00220580271102256;
-0,00154683394994346;
-0,00134057307870054;
-0,0016607004162352;
-0,00224225135623595;
-0,00262055860617872;
-0,00244591359761285;
-0,0016899637777557;
-0,000644796978500401;
0,000308038975104248;
0,000960850783904095;
0,001374339485999;
0,00176459695194285;
0,00228172755347584;
0,00288288480886674;
0,00339200232942367;
0,00367956244947498;
0,00379714098861027;
0,0039366900918163;
0,00424872920380429;
0,00467552837418255;
0,00495396467915359;
0,00480502944570366;
0,00416651889220145;
0,00328280676272513;
0,00256945291711298;
0,00234687924032576;
0,00264017207042763;
0,0031900290990184;
0,0036570480803312;
0,0038558921134516;
0,00384426554779828;
0,00381659478436616;
0,00390915263518107;
0,00408504610397155;
0,0041877380769932;
0,00410309441519226;
0,00387807866931621;
0,00368532314235459;
0,00366000829229331;
0,00375116112797564;
0,00372476624077234;
0,00333257666168526;
0,00251989190493284;
0,00150499488014274;
0,00065826126662878;
0,000264954042424987;
0,000347137111710819;
0,000673938761137561;
0,000943438601677268;
0,000990862849939396;
0,000867398234823655;
0,000745452576169309;
0,000745598960603079;
0,000834630912124281;
0,000873274558487417;
0,000759953486486919;
0,000535858579310998;
0,000353372408937861;
0,000331536224131387;
0,000424578476001827;
0,00042492553904764;
0,000112642212876475;
-0,000561005311733022;
-0,0107371170863231;
-0,0247187845477389;
-0,0187389726326553;
-0,0116497849173005;
-0,0140142005191035;
-0,00854350834800943;
-0,00701478941797837;
-0,00597087540689446;
-0,00223130275769896;
-0,00231490310754326;
9,7270000878311E-5;
0,00104617919906009;
0,0018770853702927;
0,003543366395857;
0,00383396491455442;
0,00490055539699017;
0,00518426836117926;
0,00554199680829697;
0,00619470217523186;
0,00664575875777314;
0,00744824367425054;
0,0078519343028127;
0,00799140833582325;
0,00781511956073598;
0,00733885589270084;
0,00694391924595907;
0,00655710828145403;
0,00626654609145064;
0,00594040537121475;
0,00548674245220749;
0,00498544804605913;
0,00446948669291665;
0,00404609968902804;
0,00367783994853298;
0,00327266793647256;
0,00277496998071058;
0,00219861669833197;
0,00168952083000367;
0,00138135982394024;
0,0013095355994173;
0,00136016741937957;
0,0013245302635259;
0,00104929361602355;
0,000520227408325352;
-0,000130877719693368;
-0,000731243315207963;
-0,00118706984963852;
-0,00152433853721155;
-0,001841347707309;
-0,00220613161204006;
-0,00259903122564199;
-0,00293942230786576;
-0,00316720932322414;
-0,00330600720264844;
-0,0034443499303334;
-0,00365232729589241;
-0,00390374736381692;
-0,00407639302003932;
-0,00403996922705221;
-0,00376483535888605;
-0,00336523499462433;
-0,00303675701590147;
-0,00293124684091291;
-0,00306170561730282;
-0,00330621802773409;
-0,0035040936946814;
-0,00356727441171112;
-0,00352351666041513;
-0,00346635369435865;
-0,00346184318751191;
-0,00349284734071264;
-0,0034842045253;
-0,00338085146950372;
-0,00320575516053876;
-0,00304332879893551;
-0,00296022336890282;
-0,00293225661120962;
-0,00284511547362957;
-0,00257671908329321;
-0,0020997813737755;
-0,00152198777043768;
-0,00102714824973975;
-0,000757773959860751;
-0,000725839911147495;
-0,000816815543641594;
-0,000879869206873047;
-0,000832315559048641;
-0,000699947262346056;
-0,000570011171268136;
-0,000503929216543147;
-0,000485214937705332;
-0,000443140562337916;
-0,000325802612335449;
-0,000154180405078247;
-6,55304430807512E-6;
5,55014762773091E-5;
5,52150793408706E-5;
9,98324122251515E-5;
0,000303717771441381;
0,000692796696146496;
0,00116728634651527;
0,00155666316484689;
0,00172902521698713;
0,00167402643928899;
0,00149894230362535;
0,00134466532702577;
0,00128862843081966;
0,0013074456734703;
0,00132070069997616;
0,00127200019744736;
0,00117723770359017;
0,00110254838556974;
0,00109653436366031;
0,00114022291709562;
0,00116159589018351;
0,00110415429505486;
0,000989899953747858;
0,000918476200205754;
0,000995968442427647;
0,00124659315572441;
0,00157839394620839;
0,00183416651224404;
0,00189249337969354;
0,00174421012392231;
0,00148861864441021;
0,0012558929066218;
0,00111757804183144;
0,0010522569144372;
0,000985995247980834;
0,000867013237721051;
0,000710058418019723;
0,000576042085232816;
0,000509675990934468;
0,000493516121842262;
0,000461399074960919;
0,000361465758109369;
0,000213944913552223;
0,000110259617311703;
0,000147626481278124;
0,000348087037197985;
0,000627178132470756;
0,000840733127566777;
0,000877485528306817;
0,000729020431013615;
0,000486172807096749;
0,000267925367867158;
0,000139543214535401;
8,12664653761208E-5;
2,53688049330645E-5;
-7,55931062136931E-5;
-0,000208303065342106;
-0,000317344025526532;
-0,00036212918520849;
-0,000358775531829873;
-0,000367779069403543;
-0,000436541097279162;
-0,00054676931333835;
-0,000615383890829958;
-0,000554117494301527;
-0,000343169327442805;
-5,95967900503883E-5;
0,000165352855517135;
0,000230448875551148;
0,000127966708902805;
-5,97024172163649E-5;
-0,000224688590518874;
-0,000307934404775015;
-0,000327520343022082;
-0,000344980534341667;
-0,000403417406154813;
-0,000490870854073067;
-0,000557278552559271;
-0,000566036793889965;
-0,000531853179427223;
-0,000509533213736038;
-0,000541984479982136;
-0,000612717031270368;
-0,000646744825845295;
-0,000564467650455826;
-0,000348139581031335;
-6,73951497873209E-5;
0,000159338720352817;
0,000240801449914492;
0,000170063640327939;
2,13661112616599E-5;
-0,000108168851737599;
-0,000165415251571457;
-0,00016666611207887;
-0,000167263836012807;
-0,000205937991249935;
-0,000271922415132781;
-0,000320247247983501;
-0,000318058837173897;
-0,000278560877649235;
-0,00025089540050331;
-0,000273484899960609;
-0,000331486873995231;
-0,000357676378178598;
-0,000280761531541239;
-8,48774817278137E-5;
0,000167652002857698;
0,000370926376960785;
0,000443424340917793;
0,000379049883019424;
0,000244212239884313;
0,000125696052274245;
7,09559297665994E-5;
6,54889741295475E-5;
5,99886415126406E-5;
1,99923294225834E-5;
-4,48474471464939E-5;
-9,44360512146822E-5;
-9,94993219548359E-5;
-7,17605209405254E-5;
-5,4884957946874E-5;
-8,29653032316288E-5;
-0,000142737091774662;
-0,000174430838199118;
-0,000114728413370468;
5,04406038682549E-5;
0,000265778438607548;
0,000437400156683617;
0,000493108029385567;
0,00042757945239483;
0,000299693527616432;
0,000186312333766869;
0,000129442587084098;
0,000116273763711095;
0,000103246031823659;
5,99449387563963E-5;
-5,07301465067913E-6;
-5,6399110529596E-5;
-6,82044939770548E-5;
-5,08303784918254E-5;
-4,27547923685475E-5;
-7,39835775701806E-5;
-0,000132796570398405;
-0,00016656041117668;
-0,000119576942788728;
2,04897227663764E-5;
0,000204992848356221;
0,000351430859288766;
0,000396419855861664;
0,000335325814919619;
0,000219838325785643;
0,000117369642049557;
6,47286829639868E-5;
5,06780336032654E-5;
3,70695184340824E-5;
-2,71175390531281E-6;
-6,11788513955537E-5;
-0,000107384604395553;
-0,00011878299207932;
-0,000104432906860725;
-9,79373742076305E-5;
-0,000125470560660676;
-0,000176796734990553;
-0,000206037428586155;
-0,000164696200681365;
-4,20832323747539E-5;
0,000119410658795985;
0,000247990318548582;
0,000288550318288748;
0,000237084367088617;
0,000138502411554155;
5,13202621453435E-5;
7,45476030981229E-6;
-2,85932951256648E-6;
-1,26949050369642E-5;
-4,51073725513846E-5;
-9,36184997826818E-5;
-0,000131467070540372;
-0,000139183334431315;
-0,000124622853116195;
-0,000116822419332321;
-0,00013837037739759;
-0,000180420992804757;
-0,000203411690004997;
-0,000165572174116471;
-5,77402375271877E-5;
8,35483043910346E-5;
0,000196503517075189;
0,000233750812831842;
0,000191871393958534;
0,000109455491533812;
3,67318528803956E-5;
1,06818266172465E-6;
-5,919012831462E-6;
-1,25676664245155E-5;
-3,86120969152184E-5;
-7,85040267200379E-5;
-0,000109364815586574;
-0,000114572502930722;
-0,000100852670254876;
-9,29909362441525E-5;
-0,000110238709973642;
-0,00014503320926402;
-0,00016366220581285;
-0,000130580676958807;
-3,80282906004095E-5;
8,28977319198603E-5;
0,000179684621236948;
0,000212121754402036;
0,0001773384467282;
0,000108083490910672;
4,69292622269376E-5;
1,7046900571319E-5;
1,13379719231443E-5;
5,84472490151327E-6;
-1,60954650541557E-5;
-4,97872028077154E-5;
-7,59272321461488E-5;
-8,05124660506413E-5;
-6,92202333982696E-5;
-6,29143920565611E-5;
-7,77704002712435E-5;
-0,000107404994376586;
-0,000123487213482991;
-9,61938279707044E-5;
-1,90470568583895E-5;
8,18610452228197E-5;
0,000162545323365701;
0,000189375385943265;
0,000159982241334999;
0,000101752294020169;
5,02340252773549E-5;
2,47513027799346E-5;
1,93846371007609E-5;
1,41897062258321E-5;
-4,68381342983988E-6;
-3,33226397532885E-5;
-5,56961452951806E-5;
-6,01967436766706E-5;
-5,15430665367166E-5;
-4,70153877666936E-5;
-5,9981564057431E-5;
-8,51394143546406E-5;
-9,90739960887946E-5;
-7,71849675296329E-5;
-1,41638775618215E-5;
6,84623300237081E-5;
0,000134481105362486;
0,000156254851015082;
0,000131866898887118;
8,3816669562212E-5;
4,12565418664048E-5;
2,00078880569255E-5;
1,52212154681042E-5;
1,05978804614096E-5;
-5,16026568202682E-6;
-2,88535563339903E-5;
-4,74251286020573E-5;
-5,14430469016502E-5;
-4,47576385077242E-5;
-4,14017196953338E-5;
-5,22016630136062E-5;
-7,28390067916656E-5;
-8,43548977820834E-5;
-6,68793770186868E-5;
-1,6162217204479E-5;
5,04000919818429E-5;
0,000103623403282841;
0,000121285193509994;
0,000101874223007657;
6,34725586595354E-5;
2,94553576379126E-5;
1,24815437540808E-5;
8,66579666168734E-6;
4,99562011275214E-6;
-7,52835206437224E-6;
-2,63510212936403E-5;
-4,10947301254238E-5;
-4,42863267459513E-5;
-3,89946328538645E-5;
-3,63317821694897E-5;
-4,48404698166592E-5;
-6,10884755640959E-5;
-7,01219438270625E-5;
-5,63191347995272E-5;
-1,63783404013334E-5;
3,6012328830568E-5;
7,79742770995655E-5;
9,21401448418007E-5;
7,73611010662055E-5;
4,77608394203366E-5;
2,15406472154806E-5;
8,52891591853963E-6;
5,70341638681595E-6;
2,99080996456894E-6;
-6,55331203147653E-6;
-2,09497887996785E-5;
-3,22134382681336E-5;
-3,46187563046196E-5;
-3,05358124775673E-5;
-2,84706115898183E-5;
-3,49297573600952E-5;
-4,72716696677137E-5;
-5,4110960561286E-5;
-4,36082618409078E-5;
-1,33041639206659E-5;
2,64153275092953E-5;
5,82816875124346E-5;
6,92447561054314E-5;
5,84778140230101E-5;
3,65884596989927E-5;
1,71845853228548E-5;
7,58320619416976E-6;
5,5283711436423E-6;
3,55320646938114E-6;
-3,46525879722362E-6;
-1,40577652071551E-5;
-2,23568377541571E-5;
-2,41825530126924E-5;
-2,12856208996173E-5;
-1,98669283192023E-5;
-2,46336759100673E-5;
-3,36434984544872E-5;
-3,86626049888219E-5;
-3,11896483074713E-5;
-9,50683480545592E-6;
1,89137108326274E-5;
4,17499662090893E-5;
4,97560730579667E-5;
4,23889424888363E-5;
2,71609771031743E-5;
1,36386873956966E-5;
6,93074346342369E-6;
5,45484730287915E-6;
4,03393180549511E-6;
-8,55788187298175E-7;
-8,19272056253059E-6;
-1,39669233409056E-5;
-1,53530716476145E-5;
-1,35584496706159E-5;
-1,27646146048242E-5;
-1,61039539704325E-5;
-2,22471030338788E-5;
-2,5717812170165E-5;
-2,09330852853451E-5;
-6,82233801851522E-6;
1,16885192209295E-5;
2,65965322444069E-5;
3,19754849809989E-5;
2,75293690027944E-5;
1,80722184621047E-5;
9,6493458338481E-6;
5,44626941474239E-6;
4,46664614573076E-6;
3,52465640062239E-6;
4,862217892884E-7;
-4,01645087442652E-6;
-7,58658647656736E-6;
-8,57430016961576E-6;
-7,7151644669999E-6;
-7,44008358778033E-6;
-9,51760232526881E-6;
-1,31504818127645E-5;
-1,52504709446161E-5;
-1,27596563825112E-5;
-5,16650932276022E-6;
4,80447450749305E-6;
1,28816190772414E-5;
1,60046330936306E-5;
1,40904517697146E-5;
9,62598096908883E-6;
5,62168975570939E-6;
3,60642884270327E-6;
3,08787144575581E-6;
2,59269734358065E-6;
1,18109548080942E-6;
-8,49649607234139E-7;
-2,48801364275576E-6;
-3,09255215754286E-6;
-2,99394615843845E-6;
-3,12261800888826E-6;
-4,07950231276229E-6;
-5,52400119746193E-6;
-6,41189501380857E-6;
-5,8445675589814E-6;
-3,78764307462851E-6;
-1,08460300968745E-6;
1,17827381481955E-6;
2,38552649622169E-6;
2,635575052145E-6;
2,43279235804122E-6;
2,20396266755418E-6;
2,06841316386867E-6;
1,9620540846719E-6;
1,86608275602274E-6;
1,85421040454505E-6;
1,93936333363053E-6;
1,95876991483247E-6;
1,69992711407194E-6;
1,17536210715423E-6;
7,24137404030281E-7;
7,31903485550348E-7;
1,15253780404791E-6;
1,30382904649638E-6;
2,6260488019217E-7;
-2,33836029139851E-6;
-5,75686416782476E-6;
-8,39672624467276E-6;
-8,81631071179181E-6;
-6,76455504107359E-6;
-3,40238685120082E-6;
-4,71587110098118E-7;
9,64991019655945E-7;
1,2019305093475E-6;
1,43800471708497E-6;
2,59454551013252E-6;
4,44662610545721E-6;
5,8507978089869E-6;
5,88232695838036E-6;
4,84039348427167E-6;
4,12184723479E-6;
4,93314717970903E-6;
6,9055983919971E-6;
7,9214150779834E-6;
5,54453996768487E-6;
-9,24798930249146E-7;
-9,42886348993893E-6;
-1,61488029835811E-5;
-1,79402262443684E-5;
-1,44257886652545E-5;
-8,14207577337883E-6;
-2,6205892431124E-6;
1,01039273876948E-7;
6,12631166173715E-7;
1,11456728998489E-6;
3,22465095597378E-6;
6,52243471222449E-6;
9,06003415257833E-6;
9,32940218630438E-6;
7,86485699452354E-6;
6,92849679949257E-6;
8,39690594526492E-6;
1,16371478195207E-5;
1,33600734516726E-5;
9,89717935283157E-6;
2,7876203211559E-7;
-1,23670840354674E-5;
-2,24159252316379E-5;
-2,53419167257586E-5;
-2,06653932576642E-5;
-1,20363128125359E-5;
-4,43291351398475E-6;
-6,79913464622192E-7;
5,03552356221016E-8;
7,64582429445962E-7;
3,64040057749966E-6;
8,10007097104942E-6;
1,15504127765767E-5;
1,20163980911187E-5;
1,02209404211536E-5;
9,11767314118057E-6;
1,11174413453272E-5;
1,53756739924102E-5;
1,76699574196116E-5;
1,33519398844568E-5;
1,23832404574851E-6;
-1,46931572579791E-5;
-2,73877672378242E-5;
-3,12272064235263E-5;
-2,5651109537305E-5;
-1,51872009281332E-5;
-5,95244026760171E-6;
-1,39013166239834E-6;
-4,86220472686232E-7;
3,97143703989975E-7;
3,87491835993417E-6;
9,24634032946284E-6;
1,34154745585391E-5;
1,40444601855884E-5;
1,20031361108112E-5;
1,07812473396547E-5;
1,32024230353338E-5;
1,82575453713666E-5;
2,10037520743442E-5;
1,60385071963719E-5;
2,01523922239224E-6;
-1,64356850411599E-5;
-3,11640666149345E-5;
-3,57169346042337E-5;
-2,94725606186878E-5;
-1,76265603968644E-5;
-7,16031780262907E-6;
-1,98568837629839E-6;
-9,47971684387618E-7;
6,61173321833969E-8;
3,99999703698671E-6;
1,00603310479746E-5;
1,47750393706403E-5;
1,55358903209766E-5;
1,33226664914575E-5;
1,20233795216089E-5;
1,47667744136753E-5;
2,0420969572665E-5;
2,35112470441701E-5;
1,80807707994079E-5;
2,66425230022397E-6;
-1,7629600051345E-5;
-3,38512599465517E-5;
-3,89410142746266E-5;
-3,22329273472745E-5;
-1,9405225199507E-5;
-8,06160339285101E-6;
-2,4500598470088E-6;
-1,31553139087959E-6;
-2,06508045204997E-7;
4,05300131916943E-6;
1,06039134159353E-5;
1,57094362248357E-5;
1,65723040346015E-5;
1,42497354881672E-5;
1,29068637032182E-5;
1,58829827188682E-5;
2,19601919965057E-5;
2,52974992050821E-5;
1,95591648613827E-5;
3,20029950724174E-6;
-1,83448117170131E-5;
-3,55867882695401E-5;
-4,10588149807984E-5;
-3,4065857145272E-5;
-2,06067443683711E-5;
-8,69582746049598E-6;
-2,80151864241306E-6;
-1,60351395645533E-6;
-4,31817704079588E-7;
4,03849092509683E-6;
1,09059756732491E-5;
1,62662417856002E-5;
1,72038447507852E-5;
1,48251263443487E-5;
1,34669226934407E-5;
1,65968531465531E-5;
2,29429673775835E-5;
2,64419216837388E-5;
2,05314461887872E-5;
3,62102667970246E-6;
-1,86619960583946E-5;
-3,65134142261979E-5;
-4,22324132175722E-5;
-3,51080376047656E-5;
-2,13195548845831E-5;
-9,10887438764528E-6;
-3,06472291863302E-6;
-1,83187141165515E-6;
-6,25210220755213E-7;
3,95692938460713E-6;
1,09909228503424E-5;
1,64884987541747E-5;
1,74770785331312E-5;
1,5087738766108E-5;
1,37382923871882E-5;
1,69539644819664E-5;
2,34362798398873E-5;
2,70232472663866E-5;
2,10569602620953E-5;
3,9304802052574E-6;
-1,86494688799611E-5;
-3,67567872077585E-5;
-4,26050388075378E-5;
-3,54787356608207E-5;
-2,16177206342408E-5;
-9,3349241301978E-6;
-3,2538289186692E-6;
-2,01010811634979E-6;
-7,91724926740676E-7;
3,81818189400048E-6;
1,08909958082542E-5;
1,64258654819123E-5;
1,74450265533296E-5;
1,5083553440212E-5;
1,37631195739937E-5;
1,7006497131636E-5;
2,35120777624643E-5;
2,71242204571745E-5;
2,12004145889168E-5;
4,14206818646497E-6;
-1,83609471592491E-5;
-3,64239255102297E-5;
-4,2300344643814E-5;
-3,52798961298545E-5;
-2,15618858109535E-5;
-9,39821450470345E-6;
-3,37495651013319E-6;
-2,14040801292915E-6;
-9,2978881615296E-7;
3,63720224185016E-6;
1,06413933536248E-5;
1,61292255103922E-5;
1,71613475527121E-5;
1,48594385013176E-5;
1,35844249737806E-5;
1,68063612849462E-5;
2,32401090997086E-5;
2,6824198041834E-5;
2,10243038006388E-5;
4,27089871576975E-6;
-1,78432476562456E-5;
-3,56109227024154E-5;
-4,14301180593764E-5;
-3,46038853865421E-5;
-2,12070135814256E-5;
-9,32074501504383E-6;
-3,43384649029866E-6;
-2,22517592046674E-6;
-1,03861998842311E-6;
3,42675326534657E-6;
1,02731591414451E-5;
1,5643767147692E-5;
1,66736099883069E-5;
1,44566379278665E-5;
1,32398245750362E-5;
1,63991666210876E-5;
2,26821472630139E-5;
2,61936331440113E-5;
2,05836717664203E-5;
4,3288174357436E-6;
-1,71409715079239E-5;
-3,44073447723728E-5;
-4,00983711209298E-5;
-3,35372366961014E-5;
-2,06058036214407E-5;
-9,12536616356656E-6;
-3,43861822103294E-6;
-2,26952017787692E-6;
-1,12042797110816E-6;
3,19551908924636E-6;
9,81158966227874E-6;
1,50076723905622E-5;
1,60222419112673E-5;
1,39099576391004E-5;
1,27609543340475E-5;
1,58238970477741E-5;
2,18919110262555E-5;
2,52942246572295E-5;
1,99264341116847E-5;
4,32485274144341E-6;
-1,62959560767574E-5;
-3,28955804572681E-5;
-3,84005423547189E-5;
-3,21596534672167E-5;
-1,98074632905728E-5;
-8,8343553845981E-6;
-3,39820916368925E-6;
-2,27955731512716E-6;
-1,17861369427468E-6;
2,95000178769795E-6;
9,27823717630499E-6;
1,42542043538117E-5;
1,52426791229413E-5;
1,3249937794297E-5;
1,21756507516608E-5;
1,51151174025296E-5;
2,09173221954218E-5;
2,41811940192386E-5;
1,90956082314292E-5;
4,26730996282726E-6;
-1,53453785890647E-5;
-3,11490789203395E-5;
-3,64217847960335E-5;
-3,05422717960354E-5;
-1,88559038781759E-5;
-8,46756279626065E-6;
-3,32051627104859E-6;
-2,26061989858412E-6;
-1,21603634393636E-6;
2,69622894198335E-6;
8,69260539488146E-6;
1,34133711325629E-5;
1,43669407100073E-5;
1,25043250523854E-5;
1,15093349780744E-5;
1,43043052296615E-5;
1,98018009875991E-5;
2,29045211755068E-5;
1,81303960127191E-5;
4,1646083067564E-6;
-1,43211854603066E-5;
-2,92320366146825E-5;
-3,42367810214639E-5;
-2,87474628915608E-5;
-1,77894723806256E-5;
-8,04208139860378E-6;
-3,21208371349913E-6;
-2,21699396902388E-6;
-1,23480163241947E-6;
2,43993854978545E-6;
8,07234107594089E-6;
1,25121127193137E-5;
1,34237647042098E-5;
1,1698111336364E-5;
1,07849707825285E-5;
1,34197827018248E-5;
1,85842175836379E-5;
2,15088849630852E-5;
1,70660186609626E-5;
4,02488898928465E-6;
-1,32507800434084E-5;
-2,72002925331242E-5;
-3,19107057050748E-5;
-2,6829724573315E-5;
-1,66416928226123E-5;
-7,57286464095992E-6;
-3,07865742770821E-6;
-2,15247519446821E-6;
-1,23681518704944E-6;
2,18607711643954E-6;
7,43280230947122E-6;
1,15739249185949E-5;
1,24382462246789E-5;
1,0853148640258E-5;
1,00226650083161E-5;
1,24863602461349E-5;
1,72986151917635E-5;
2,00334274182181E-5;
1,59334066519831E-5;
3,85550435507841E-6;
-1,21577891868702E-5;
-2,51022991998368E-5;
-2,95002476364537E-5;
-2,48365778920073E-5;
-1,54419479579411E-5;
-7,07322986357728E-6;
-2,92558952007548E-6;
-2,07072867659364E-6;
-1,22410999345058E-6;
1,9385540506513E-6;
6,78693062474776E-6;
1,06188174159678E-5;
1,14318194375777E-5;
9,98810933305687E-6;
9,23962073691163E-6;
1,15253471630817E-5;
1,59743206176775E-5;
1,85119331971007E-5;
1,47593198910237E-5;
3,66292003356611E-6;
-1,10624392691756E-5;
-2,29797108989121E-5;
-2,70542401674051E-5;
-2,28090702778308E-5;
-1,42157785472072E-5;
-6,55495768090693E-6;
-2,75783320611519E-6;
-1,97526050828139E-6;
-1,19878170312288E-6;
1,70037351169142E-6;
6,14548901686223E-6;
9,66364661861327E-6;
1,04225996533095E-5;
9,11880311684308E-6;
8,45045132296695E-6;
1,05549062345291E-5;
1,46363901970195E-5;
1,69733152763097E-5;
1,35667392807785E-5;
3,45288217423772E-6;
-9,98170315536564E-6;
-2,08677743180499E-5;
-2,46141066648058E-5;
-2,07821094704425E-5;
-1,29850082258632E-5;
-6,02824108707734E-6;
-2,57981070487142E-6;
-1,86926355847169E-6;
-1,16282012209235E-6;
1,47387466890493E-6;
5,51738911357393E-6;
8,72249670839129E-6;
9,42579047966645E-6;
8,25853783827542E-6;
7,66749559995099E-6;
9,59041640648938E-6;
1,33060500921174E-5;
1,54420980820348E-5;
1,23752646879206E-5;
3,23054849644559E-6;
-8,92948416182218E-6;
-1,87957561517302E-5;
-2,2214383674939E-5;
-1,87848744871828E-5;
-1,17679512584233E-5;
-5,50172892813199E-6;
-2,39536707012264E-6;
-1,75555602793496E-6;
-1,11803896815481E-6;
1,26085293343655E-6;
4,90991486992099E-6;
7,80698476055749E-6;
8,45396994218237E-6;
7,41836359723131E-6;
6,9010501225297E-6;
8,64473093824151E-6;
1,20010390803699E-5;
1,39387986871403E-5;
1,12013845257594E-5;
3,00051818769442E-6;
-7,91690898967934E-6;
-1,67875081209463E-5;
-1,98833516051993E-5;
-1,68413372226332E-5;
-1,05797343112758E-5;
-4,98265949246248E-6;
-2,20782415867285E-6;
-1,63662231076346E-6;
-1,06609737291348E-6;
1,06260447531366E-6;
4,3288527732434E-6;
6,92645541169936E-6;
7,51731263729322E-6;
6,6072584729027E-6;
6,15951794403707E-6;
7,7283632281567E-6;
1,07358751577546E-5;
1,24802379709119E-5;
1,00587158911147E-5;
2,76682727549925E-6;
-6,95266248630056E-6;
-1,48620317508548E-5;
-1,76436683591458E-5;
-1,49707953646604E-5;
-9,43262840404974E-6;
-4,47702204866155E-6;
-2,02004944982093E-6;
-1,51466171624324E-6;
-1,00853607132854E-6;
8,79951512451617E-7;
3,77862568880034E-6;
6,08819655344137E-6;
6,62380221238653E-6;
5,83229703732513E-6;
5,44956061886746E-6;
6,84969777330032E-6;
9,52215664847948E-6;
1,1079880788033E-5;
8,95824589818935E-6;
2,53294631771985E-6;
-6,04327406036289E-6;
-1,30340129798331E-5;
-1,55129854302439E-5;
-1,31883681861076E-5;
-8,33635008983714E-6;
-3,98968472816642E-6;
-1,83449696343321E-6;
-1,391614127954E-6;
-9,46777691852919E-7;
7,13309978411381E-7;
3,26244248625353E-6;
5,29766029425155E-6;
5,77947410662395E-6;
5,09886604340529E-6;
4,77629666706708E-6;
6,01521027545508E-6;
8,3688636132672E-6;
9,7481909322851E-6;
7,90860865200943E-6;
2,3018361238943E-6;
-5,19337376935429E-6;
-1,131430636223E-5;
-1,35044913718583E-5;
-1,15054532481889E-5;
-7,29832607589809E-6;
-3,52449355510114E-6;
-1,65323193182235E-6;
-1,26916066863101E-6;
-8,82117823455297E-7;
5,62753560112422E-7;
2,78246437144216E-6;
4,55869206028345E-6;
4,98864811154217E-6;
4,41086330965189E-6;
4,14347829543339E-6;
5,22969262587995E-6;
7,28266162601501E-6;
8,49296946462485E-6;
6,91634215253517E-6;
2,07598915740494E-6;
-4,40592729165785E-6;
-9,71040264673302E-6;
-1,16274492869016E-5;
-9,9301590968779E-6;
-6,3239534325105E-6;
-3,08437664630262E-6;
-1,47795222712452E-6;
-1,14873385792671E-6;
-8,1571478691373E-7;
4,28080562363497E-7;
2,3399489534959E-6;
3,87374625630581E-6;
4,25415768634826E-6;
3,77089606549829E-6;
3,55367028312872E-6;
4,49646608672997E-6;
6,26819007472285E-6;
7,31968278684266E-6;
5,98614179069266E-6;
1,85746902413047E-6;
-3,68246486195747E-6;
-8,22686069415852E-6;
-9,88769399983059E-6;
-8,46771611823295E-6;
-5,41684397863999E-6;
-2,67144825412831E-6;
-1,31002169355584E-6;
-1,03153475554847E-6;
-7,48597244017368E-7;
3,08864688820917E-7;
1,93538401914663E-6;
3,24407848741292E-6;
3,57755107636996E-6;
3,18044622413502E-6;
3,00839917158256E-6;
3,81756630424044E-6;
5,3283157380502E-6;
6,23175431515988E-6;
5,12108702281296E-6;
1,64794666985895E-6;
-3,02330053181143E-6;
-6,86572448457858E-6;
-8,28811517945592E-6;
-7,12087894321797E-6;
-4,57906438121498E-6;
-2,28710992695595E-6;
-1,15050531898962E-6;
-9,18551259308895E-7;
-6,81663196840812E-7;
2,04494332548277E-7;
1,56860007351331E-6;
2,66992084261679E-6;
2,95927252000961E-6;
2,64003452547502E-6;
2,50830319576835E-6;
3,1939216997014E-6;
4,46438285413117E-6;
5,23084979114241E-6;
4,32285274719003E-6;
1,44873777533734E-6;
-2,42772269374056E-6;
-5,62690812041205E-6;
-6,82908983889252E-6;
-5,89028517751138E-6;
-3,8113626145919E-6;
-1,93214487548421E-6;
-1,00020044638095E-6;
-8,10579550464579E-7;
-6,15694411218258E-7;
1,14213895137865E-7;
1,23888590595489E-6;
2,15064367086876E-6;
2,39883759654884E-6;
2,14936737772952E-6;
2,05326270448449E-6;
2,6255172515314E-6;
3,67643113047006E-6;
4,31712831905173E-6;
3,59191067871797E-6;
1,26083092180972E-6;
-1,89418414556123E-6;
-4,50854529806502E-6;
-5,50889298992789E-6;
-4,77479230552951E-6;
-3,11336582644054E-6;
-1,60680658091093E-6;
-8,59664804329787E-7;
-7,08241206220918E-7;
-5,51360419879559E-7;
3,71597639947183E-8;
9,45086530548386E-7;
1,68491110124117E-6;
1,89499451732679E-6;
1,70747437311408E-6;
1,64252836643832E-6;
2,11155155766625E-6;
2,96341490472865E-6;
3,48949188850393E-6;
2,92771542308166E-6;
1,08492742806535E-6;
-1,42045849143284E-6;
-3,50730955256174E-6;
-4,32406243537282E-6;
-3,77178506214024E-6;
-2,48376787726155E-6;
-1,31089844165181E-6;
-7,2924928806609E-7;
-6,11997510300426E-7;
-4,89217712089666E-7;
-2,76000572519381E-8;
6,85695981830005E-7;
1,27081126760513E-6;
1,4458643703896E-6;
1,31282984185274E-6;
1,27482864797181E-6;
1,65057091567498E-6;
2,32338828399072E-6;
2,74579707254372E-6;
2,32887533093015E-6;
9,2147443126766E-7;
0,00933243026109683;
0,0226271111244243;
0,0163694675402665;
0,00943021873040165;
0,0121674712881555;
0,00702512348093556;
0,00563420800920988;
0,00458218788534271;
0,000840070365908957;
0,00103231132012452;
-0,00118998056103081;
-0,00199104667030306;
-0,00280608785773625;
-0,00455271784520033;
-0,00488637651634933;
-0,00585466011109752;
-0,0059394635970902;
-0,00618040526518326;
-0,00699178335547571;
-0,00791993284763557;
-0,00934952899528608;
-0,0102447260133225;
-0,0105208393371516;
-0,0101106101588635;
-0,00920908553916536;
-0,00843110157914837;
-0,00783093345286353;
-0,00745791044327289;
-0,00704842652390605;
-0,00641880126566484;
-0,00567519080361172;
-0,00495789953538856;
-0,00445237953134447;
-0,00409011030428034;
-0,00366316438520561;
-0,00302568818726392;
-0,00222698150215026;
-0,0015713314562615;
-0,00135975807040907;
-0,00166461294038948;
-0,00222605407666111;
-0,00258821878457084;
-0,00240829020058065;
-0,0016585797180001;
-0,000625715748293899;
0,000316077146646524;
0,000963263906330603;
0,00137550645151845;
0,00176481168923425;
0,00227830388827008;
0,00287380710377322;
0,00337852216817486;
0,00366534352662716;
0,003784816767332;
0,00392515921757095;
0,00423401189018499;
0,00465491495575672;
0,00493011480592007;
0,00478629716365126;
0,00416256305158488;
0,00329833101060294;
0,00260063369116211;
0,00238322061825377;
0,00267053907816552;
0,00320857105685189;
0,00366498970870712;
0,00385845839041753;
0,00384565208054267;
0,00381703465786812;
0,00390600529105993;
0,00407634336107338;
0,00417469897358;
0,00408929213284723;
0,00386610146686737;
0,00367414713232328;
0,003645810770888;
0,00373131575340332;
0,00370179789831194;
0,0033144868509955;
0,0025159487962803;
0,00151972376367009;
0,000688015673440375;
0,000299694582476787;
0,000376214518895387;
0,000691764373403512;
0,000951189174625934;
0,000993525537693909;
0,000868954187480734;
0,000746080353701508;
0,000742734058514983;
0,000826372878829694;
0,000860797124430988;
0,000746702167962342;
0,000524346364569514;
0,000342655101381276;
0,000317977753932371;
0,000405659908536329;
0,000403022210063943;
9,534505376025E-5;
-0,000564888263994635;
-0,0107232738833895;
-0,0246906593361917;
-0,0187060767004908;
-0,0116222069898523;
-0,0139972297507164;
-0,00853602595644831;
-0,00701208005091602;
-0,00596919532080341;
-0,0022305218144676;
-0,00231748534579639;
8,95078983474877E-5;
0,00103435566967765;
0,00186448903147264;
0,00353241088452308;
0,0038237864309474;
0,004887726563329;
0,00516639629724802;
0,00552129711241416;
0,00617831254455996;
0,0066419754976637;
0,00746113902428196;
0,00787828447535227;
0,00802228233378663;
0,00784104374828744;
0,00735486775804164;
0,00695107215902097;
0,00655982135620812;
0,00626830992600053;
0,00594130751387192;
0,00548443834402827;
0,0049782170320581;
0,0044583843996033;
0,00403423565214949;
0,003667509730316;
0,00326308755921383;
0,00276293622284707;
0,00218187655775146;
0,00167012397299139;
0,00136596151999782;
0,00130588452272312;
0,00137207733742977;
0,00134900951042324;
0,00107802670143268;
0,00054439256314085;
-0,00011589829725001;
-0,000724466853452534;
-0,00118438957477424;
-0,00152252647452626;
-0,00184035337861153;
-0,00220816587805849;
-0,00260570979825286;
-0,00294975771774856;
-0,00317828707659443;
-0,00331566377994724;
-0,00345329112634929;
-0,0036635224555014;
-0,00391930002845398;
-0,00409442221915927;
-0,00405431960935816;
-0,00376832811370366;
-0,0033543269413486;
-0,0030142013490079;
-0,00290472304476269;
-0,00303936222411241;
-0,00329231791667977;
-0,00349772792525076;
-0,00356465744753483;
-0,00352168725171542;
-0,00346529325533981;
-0,00346361888787494;
-0,003498963962237;
-0,00349374620291454;
-0,00339110927602291;
-0,00321470740438629;
-0,00305160559538354;
-0,00297055541827829;
-0,00294659210362954;
-0,00286174198725092;
-0,00258998862117513;
-0,00210309545108161;
-0,00151208016156134;
-0,00100653193723466;
-0,000733484531148643;
-0,000705344502125813;
-0,000804018626960911;
-0,000873937232978053;
-0,00082978696702134;
-0,000698127073556113;
-0,000568907880150986;
-0,000505459979479426;
-0,00049077016544542;
-0,000451877815081588;
-0,000335224344577492;
-0,000162412892314801;
-1,41539176477938E-5;
4,60407132357445E-5;
4,21043069108498E-5;
8,46180851573795E-5;
0,00029154161233847;
0,000689676417076777;
0,00117620976889492;
0,00157535537429197;
0,00175109175937496;
0,00169267855708113;
0,00151063171968549;
0,00135015006710296;
0,00129104852223389;
0,00130923408415495;
0,00132182629666749;
0,00127069897873753;
0,00117223489569428;
0,00109461257388864;
0,00108794991634281;
0,00113271259097025;
0,00115467081249039;
0,00109555917940066;
0,000978002763160414;
0,0009046619987583;
0,000984880889187474;
0,00124367713339378;
0,00158636156855258;
0,00185097559271327;
0,00191237894146434;
0,00176104945919813;
0,00149921273208176;
0,00126092528936954;
0,00111987396191189;
0,00105399471296993;
0,000987125212229204;
0,000865924957974622;
0,000705592173855591;
0,000568893351715321;
0,000501917555999942;
0,000486719444167692;
0,000455139923583404;
0,000353719161905324;
0,000203234667021395;
9,78155775744369E-5;
0,000137608298409632;
0,000345381626946978;
0,000634228043805012;
0,000855720964742206;
0,000895256879598477;
0,000744098691523269;
0,000495697394391388;
0,000272507354522281;
0,0001417033057072;
8,29382572999158E-5;
2,64876868147402E-5;
-7,6485784913072E-5;
-0,000212254089250086;
-0,000323729321610728;
-0,00036908314321891;
-0,000364876079203217;
-0,000373390171925907;
-0,000443465674836257;
-0,000556331855510908;
-0,000626502310816624;
-0,000563097407114999;
-0,000345661334222398;
-5,34189640911242E-5;
0,000178597923917605;
0,000246192631512223;
0,000141352609401992;
-5,12104156867062E-5;
-0,00022054909791074;
-0,000305918235412921;
-0,000325926809155901;
-0,000343885832131528;
-0,000404132136187507;
-0,000494332250084047;
-0,000562931457549885;
-0,00057221607137238;
-0,000537282384326463;
-0,00051452059088304;
-0,000548121013268875;
-0,000621181114285259;
-0,000656593770632846;
-0,000572449930527897;
-0,000350418477024763;
-6,20381843038999E-5;
0,000170932214097443;
0,000254619571585196;
0,000181839150762684;
2,88712107622693E-5;
-0,000104459068817782;
-0,000163547964267815;
-0,000165160242640402;
-0,000166204221326787;
-0,000206492414429076;
-0,000274922941861312;
-0,00032520453878719;
-0,000323499711810733;
-0,000283349260208003;
-0,000255288425139908;
-0,000278873144621263;
-0,000338909435989143;
-0,000366320928744414;
-0,000287794257723029;
-8,69461906565335E-5;
0,000172243226304045;
0,000380968783861102;
0,000455430149091664;
0,000389306885392456;
0,000250782819518751;
0,000128992847592357;
7,26721066021997E-5;
6,69003170388633E-5;
6,10042814502797E-5;
1,95808767433778E-5;
-4,74180685333241E-5;
-9,8738752303989E-5;
-0,000104242955476187;
-7,59429526408085E-5;
-5,8716813399726E-5;
-8,76492940726663E-5;
-0,000149180710371468;
-0,000181942652963906;
-0,000120865246577665;
4,85769477067501E-5;
0,000269661455912099;
0,000445998257103854;
0,000503422697935402;
0,000436416800851831;
0,000305386835230869;
0,00018921593306515;
0,000131007761156461;
0,000117585979710336;
0,00010421066423642;
5,96596464379681E-5;
-7,24607249810041E-6;
-6,009118506305E-5;
-7,22955305494802E-5;
-5,44448653379749E-5;
-4,60613694138764E-5;
-7,80103019865505E-5;
-0,00013832765685357;
-0,000173015649725171;
-0,000124875484466775;
1,88241670821423E-5;
0,000208226354261216;
0,000358695133857568;
0,000405169372001149;
0,000342846779237675;
0,00022471487579641;
0,000119902156239397;
6,61449602437281E-5;
5,18885150243988E-5;
3,79777932618577E-5;
-2,8869734402426E-6;
-6,29873420035139E-5;
-0,000110511825191239;
-0,000122268334137818;
-0,00010751952574076;
-0,000100756315592879;
-0,000128888806579976;
-0,000181483972207871;
-0,00021151494769421;
-0,000169216552086779;
-4,35591080854557E-5;
0,000122053422655756;
0,000254032718067207;
0,000295862866571802;
0,000243394426849738;
0,000142624595442036;
5,35054416144934E-5;
8,72590448086603E-6;
-1,75145806395824E-6;
-1,18468239081078E-5;
-4,51877511090916E-5;
-9,50954682089243E-5;
-0,000134076042603352;
-0,000142111083408772;
-0,000127222823812655;
-0,000119192291713199;
-0,000141229748735189;
-0,000184333984788796;
-0,000207991488906222;
-0,000169375701115597;
-5,90359988926642E-5;
8,56582737111134E-5;
0,000201435581696869;
0,000239754557666442;
0,000197076353409777;
0,000112886382199037;
3,85945029010459E-5;
2,1993199633398E-6;
-4,91313777353211E-6;
-1,17822627535299E-5;
-3,86118986953941E-5;
-7,96820600533873E-5;
-0,000111502151302908;
-0,000116991059504916;
-0,000103007574350873;
-9,495052089472E-5;
-0,000112588778632884;
-0,000148241346054294;
-0,000167424108502841;
-0,000133728944647647;
-3,91543604480124E-5;
8,45313012650222E-5;
0,00018361590915978;
0,000216942971224702;
0,000181542858508758;
0,000110885833544734;
4,84947269532047E-5;
1,80442459232649E-5;
1,22437261921393E-5;
6,5661578950169E-6;
-1,60279168768983E-5;
-5,06980099560864E-5;
-7,76388538308104E-5;
-8,24697695460855E-5;
-7,09713463678123E-5;
-6,45020906155673E-5;
-7,96600045175381E-5;
-0,000109976491465046;
-0,000126509767102841;
-9,87477104217993E-5;
-2,00144553497349E-5;
8,30724551003876E-5;
0,000165582127989936;
0,000193136941203346;
0,00016328810034501;
0,000103987666978691;
5,15277551993136E-5;
2,56219133695224E-5;
2,01931960704929E-5;
1,48469086524884E-5;
-4,56106221660586E-6;
-3,39967241178328E-5;
-5,70267324641023E-5;
-6,17396474166841E-5;
-5,29308090254842E-5;
-4,82687320750335E-5;
-6,1458227341783E-5;
-8,71405383165301E-5;
-0,000101433568476786;
-7,92039105751398E-5;
-1,49840005257274E-5;
6,93032113151878E-5;
0,000136725433975882;
0,000159074969402329;
0,000134372586618634;
8,55447925382914E-5;
4,23037187829839E-5;
2,07594367457681E-5;
1,59363611454999E-5;
1,11914874452258E-5;
-4,99335879813165E-6;
-2,93199473738174E-5;
-4,84176503062747E-5;
-5,26168087209892E-5;
-4,58211242728365E-5;
-4,23569677136179E-5;
-5,33111262203661E-5;
-7,4333439877087E-5;
-8,61249393936014E-5;
-6,84207920758364E-5;
-1,68466358131738E-5;
5,09191180980986E-5;
0,000105172180330055;
0,000123276497764633;
0,000103673674686217;
6,47507396352693E-5;
3,02805940869389E-5;
1,31221318294516E-5;
9,29198855621522E-6;
5,52701903231785E-6;
-7,32723880032751E-6;
-2,6637084186307E-5;
-4,17900934448647E-5;
-4,51342027932316E-5;
-3,97713167523525E-5;
-3,70236058961508E-5;
-4,56263260959817E-5;
-6,21368286151239E-5;
-7,13724170118213E-5;
-5,74379206581608E-5;
-1,69386275271483E-5;
3,62549699054758E-5;
7,89187500932172E-5;
9,34089311547087E-5;
7,8543172909355E-5;
4,86435460354111E-5;
2,21677303340385E-5;
9,06689510836464E-6;
6,24563466943259E-6;
3,46201632017054E-6;
-6,32686388990835E-6;
-2,10810845590105E-5;
-3,26502260383933E-5;
-3,51816999966342E-5;
-3,10612121367214E-5;
-2,89318496375876E-5;
-3,54331708056654E-5;
-4,79311145858879E-5;
-5,49079187549891E-5;
-4,43564421709745E-5;
-1,37517478057966E-5;
2,64236977499172E-5;
5,87070262508105E-5;
6,98904818911636E-5;
5,91258278120656E-5;
3,71270071190583E-5;
1,76362806986999E-5;
8,02702978726209E-6;
5,99197066401022E-6;
3,96674523687309E-6;
-3,22130525792439E-6;
-1,40579636284732E-5;
-2,25711131810076E-5;
-2,44989903228911E-5;
-2,15931183634521E-5;
-2,01284132506959E-5;
-2,48931956466103E-5;
-3,3967510519563E-5;
-3,90678773862716E-5;
-3,16161049837974E-5;
-9,85288008242423E-6;
1,8726486958582E-5;
4,17350024924773E-5;
4,98710267405412E-5;
4,25803825880667E-5;
2,74032991080756E-5;
1,39365845321084E-5;
7,28884109082385E-6;
5,84543313975262E-6;
4,39273161699021E-6;
-6,01157144870362E-7;
-8,08355450631728E-6;
-1,3992113590729E-5;
-1,54587456448792E-5;
-1,3679149572502E-5;
-1,28550511195805E-5;
-1,61553759136794E-5;
-2,22852952655549E-5;
-2,57888132508577E-5;
-2,1083373764917E-5;
-7,07763668407185E-6;
1,13409299534997E-5;
2,62136438946202E-5;
3,16446127682635E-5;
2,73357117188736E-5;
1,8062730802808E-5;
9,8137429485192E-6;
5,7269322010498E-6;
4,78995720643231E-6;
3,83194798301686E-6;
7,45644414181299E-7;
-3,81770755885166E-6;
-7,45342401040561E-6;
-8,50219727187952E-6;
-7,67781570742089E-6;
-7,38598292507878E-6;
-9,39390469803639E-6;
-1,29485178729619E-5;
-1,50400994148436E-5;
-1,26759035974955E-5;
-5,34140532625586E-6;
4,32833404708381E-6;
1,21967297365228E-5;
1,53055047446255E-5;
1,35771127713705E-5;
9,40552192898282E-6;
5,67151933422168E-6;
3,81772443368967E-6;
3,34968917216883E-6;
2,85193075380633E-6;
1,44031106503111E-6;
-5,79197202543746E-7;
-2,22452013029669E-6;
-2,87285915180073E-6;
-2,8249090948085E-6;
-2,94827006101623E-6;
-3,81083459812574E-6;
-5,12359164136422E-6;
-5,96850788161542E-6;
-5,56543306860152E-6;
-3,89196481769467E-6;
-1,66080700242702E-6;
2,50931395942583E-7;
1,38840812986313E-6;
1,86194797805649E-6;
2,03860805501691E-6;
2,15674199226052E-6;
2,21811027348296E-6;
2,16811712392586E-6;
2,08084478596963E-6;
2,10903944543161E-6;
2,2655336532214E-6;
2,32725056761265E-6;
2,03979921930023E-6;
1,45211136852383E-6;
9,96657580275105E-7;
1,11820300888976E-6;
1,71359626047754E-6;
1,93636418973814E-6;
7,01918385545325E-7;
-2,38136978353905E-6;
-6,40784674808083E-6;
-9,51316570784888E-6;
-1,00482828575692E-5;
-7,74497517137375E-6;
-3,93658915628438E-6;
-5,99772394972318E-7;
1,06050274481407E-6;
1,35786308050613E-6;
1,61195508500318E-6;
2,84156415384123E-6;
4,81432642831992E-6;
6,30153307601365E-6;
6,31769677657833E-6;
5,20322819081616E-6;
4,47263168285787E-6;
5,41247857409263E-6;
7,59333213096003E-6;
8,70362677099661E-6;
6,11222410884098E-6;
-9,15162175341258E-7;
-1,01323973725944E-5;
-1,74069547723839E-5;
-1,93508061319894E-5;
-1,55652177483086E-5;
-8,78603326406774E-6;
-2,81507914438353E-6;
1,49372858664762E-7;
7,2388498856179E-7;
1,25137863478731E-6;
3,46111813182291E-6;
6,91919678073471E-6;
9,57281261038458E-6;
9,83822856689983E-6;
8,29442143536383E-6;
7,33974409875649E-6;
8,94732292088733E-6;
1,24212643967775E-5;
1,42567274522992E-5;
1,05647213006334E-5;
3,3300234426199E-7;
-1,3103827479517E-5;
-2,37740867135397E-5;
-2,68814340253744E-5;
-2,19215213034669E-5;
-1,27630870046331E-5;
-4,68045357037581E-6;
-6,72184951912465E-7;
1,22163716940798E-7;
8,67885733744938E-7;
3,86419320132929E-6;
8,51505423889053E-6;
1,21074284965501E-5;
1,25791726518971E-5;
1,07000683293239E-5;
9,5736005774786E-6;
1,17195312195887E-5;
1,62294049932047E-5;
1,86498786992936E-5;
1,40939935228426E-5;
1,32975147547175E-6;
-1,54464703649858E-5;
-2,88095999378264E-5;
-3,28522248629645E-5;
-2,69868211844743E-5;
-1,59730226913204E-5;
-6,24114696007828E-6;
-1,41689057870924E-6;
-4,48877196830371E-7;
4,70484269090385E-7;
4,08446313778699E-6;
9,67022370649713E-6;
1,40011922109704E-5;
1,46440791905521E-5;
1,25167429163297E-5;
1,1267995378516E-5;
1,38391820017817E-5;
1,91574571171637E-5;
2,20396106252591E-5;
1,68327434320559E-5;
2,1370711811345E-6;
-1,71914299149513E-5;
-3,26182534324388E-5;
-3,73898637009757E-5;
-3,08556255987348E-5;
-1,84506602854501E-5;
-7,47962053564525E-6;
-2,04128947701763E-6;
-9,4040389384548E-7;
1,12925462478531E-7;
4,19420804206455E-6;
1,0485202796581E-5;
1,5376055385532E-5;
1,61575090730607E-5;
1,38576265895648E-5;
1,25288949162773E-5;
1,54234505146596E-5;
2,13467570867686E-5;
2,45793276289827E-5;
1,89077019135127E-5;
2,81033069711641E-6;
-1,83759393301258E-5;
-3,53111376539646E-5;
-4,06296956019999E-5;
-3,36356697466624E-5;
-2,02496418177613E-5;
-8,40218297282297E-6;
-2,52933137134357E-6;
-1,33335231658291E-6;
-1,82947956099671E-7;
4,23121829287081E-6;
1,10231563332094E-5;
1,63143229765991E-5;
1,72031898126586E-5;
1,47947565176097E-5;
1,34207821069031E-5;
1,65469314176461E-5;
2,28944639362272E-5;
2,63774526607765E-5;
2,04019693692063E-5;
3,36507529210602E-6;
-1,90720171192194E-5;
-3,70299815325268E-5;
-4,2736110718014E-5;
-3,54648203117073E-5;
-2,14561289863001E-5;
-9,04955144336555E-6;
-2,89976104440736E-6;
-1,64265507664137E-6;
-4,28397356392358E-7;
4,20041449872804E-6;
1,13141544816341E-5;
1,68653936987594E-5;
1,78332128144636E-5;
1,53706114330066E-5;
1,3980442177961E-5;
1,72573747680882E-5;
2,3871024590868E-5;
2,75165097671365E-5;
2,13757724529351E-5;
3,7995443848266E-6;
-1,93622340558156E-5;
-3,7921458806197E-5;
-4,38757791275887E-5;
-3,6483631255603E-5;
-2,21609704365564E-5;
-9,46871916157695E-6;
-3,17770018445964E-6;
-1,88858929440406E-6;
-6,39001066134101E-7;
4,10257281965988E-6;
1,13836705658833E-5;
1,70739765811507E-5;
1,80959316154112E-5;
1,56256499173193E-5;
1,4244047487519E-5;
1,76021395172022E-5;
2,43458860788111E-5;
2,80780892482307E-5;
2,18907320725096E-5;
4,11834762437197E-6;
-1,93166079848309E-5;
-3,81147596990236E-5;
-4,41961049464146E-5;
-3,68148912373373E-5;
-2,24404297390732E-5;
-9,69489373450798E-6;
-3,37774978182623E-6;
-2,08098563148079E-6;
-8,2000257439925E-7;
3,94782133150334E-6;
1,12649038316602E-5;
1,69912343321653E-5;
1,80459972375408E-5;
1,56072787194424E-5;
1,4255056237221E-5;
1,76350291058539E-5;
2,43932380009693E-5;
2,81475333773135E-5;
2,20136383084822E-5;
4,33543103889127E-6;
-1,89903753683011E-5;
-3,77200818631499E-5;
-4,38244946917694E-5;
-3,65637293436536E-5;
-2,23571579094012E-5;
-9,75326717651204E-6;
-3,50646885164055E-6;
-2,22235535052018E-6;
-9,70033436420829E-7;
3,75132191247521E-6;
1,09939009677036E-5;
1,66694109985934E-5;
1,77385367312269E-5;
1,5363652194862E-5;
1,40576743041359E-5;
1,74094154826147E-5;
2,40848506360581E-5;
2,78065466067707E-5;
2,18088741575685E-5;
4,46641376858069E-6;
-1,8431682619207E-5;
-3,68363543269577E-5;
-4,28760983449148E-5;
-3,58253586688557E-5;
-2,19679197440553E-5;
-9,66670814064692E-6;
-3,57000163603772E-6;
-2,31541657021868E-6;
-1,08852419320712E-6;
3,52601077856082E-6;
1,0602455765508E-5;
1,61549009340435E-5;
1,72224368915375E-5;
1,49371664450816E-5;
1,36905752633557E-5;
1,69722211815788E-5;
2,34843057120467E-5;
2,71276836995351E-5;
2,13331803396186E-5;
4,52361251827864E-6;
-1,76862924804865E-5;
-3,55556383390017E-5;
-4,14579015650575E-5;
-3,46888477761193E-5;
-2,13270211742683E-5;
-9,45885655152705E-6;
-3,57686289727207E-6;
-2,3655843454369E-6;
-1,17789403886684E-6;
3,28070539751882E-6;
1,01165175166873E-5;
1,54869504987549E-5;
1,65392914944126E-5;
1,43636575602324E-5;
1,31863441310229E-5;
1,63635907178563E-5;
2,26469232757942E-5;
2,61745107163424E-5;
2,06359935932097E-5;
4,51649943397994E-6;
-1,67970495752613E-5;
-3,39625067971385E-5;
-3,96679481981095E-5;
-3,32361275052783E-5;
-2,04851007441888E-5;
-9,15270257024997E-6;
-3,53634881397389E-6;
-2,37927136134931E-6;
-1,24175321617512E-6;
3,02200418372544E-6;
9,55819871954324E-6;
1,46997585550043E-5;
1,57255599115201E-5;
1,36745676405747E-5;
1,25736487664861E-5;
1,56191127898352E-5;
2,16220385603375E-5;
2,50038951539758E-5;
1,97616699190181E-5;
4,45378381925801E-6;
-1,58019796569174E-5;
-3,21322980252422E-5;
-3,75936595634659E-5;
-3,15402795546014E-5;
-1,94873226776054E-5;
-8,76872792462983E-6;
-3,45669463455373E-6;
-2,36208547098565E-6;
-1,28315968973667E-6;
2,75600213817202E-6;
8,94748139185248E-6;
1,38241396426093E-5;
1,48141565381132E-5;
1,28984328812673E-5;
1,18786346270512E-5;
1,47711558180813E-5;
2,04542949011113E-5;
2,36672462871663E-5;
1,87505905407599E-5;
4,34425850703923E-6;
-1,47337471856963E-5;
-3,01308220253417E-5;
-3,53116623352245E-5;
-2,96653429142388E-5;
-1,83731167274114E-5;
-8,32459374664536E-6;
-3,34475807764376E-6;
-2,31857937144791E-6;
-1,30441759815563E-6;
2,48848188671794E-6;
8,30241335217103E-6;
1,28877238720709E-5;
1,3834588084195E-5;
1,20609307453273E-5;
1,1124895945962E-5;
1,38488096244168E-5;
1,91836239811072E-5;
2,22104830509712E-5;
1,76389992492222E-5;
4,19640178042061E-6;
-1,36203466052776E-5;
-2,80152736790265E-5;
-3,2888782401576E-5;
-2,76672492636959E-5;
-1,71769419251688E-5;
-7,83574584793754E-6;
-3,2065673470222E-6;
-2,25279163788271E-6;
-1,30761992071137E-6;
2,22440768946762E-6;
7,63868092856517E-6;
1,19145884842257E-5;
1,2812604257704E-5;
1,11844937833127E-5;
1,03330712931491E-5;
1,28775331970561E-5;
1,78449600457057E-5;
2,06737974518209E-5;
1,64587027200392E-5;
4,01786835830737E-6;
-1,24858808946531E-5;
-2,58352351363775E-5;
-3,03830855412606E-5;
-2,55947147077985E-5;
-1,59289757584322E-5;
-7,31593161825364E-6;
-3,04773173329043E-6;
-2,16861515026805E-6;
-1,29497745715126E-6;
1,9676868548137E-6;
6,96949357019636E-6;
1,09252312592502E-5;
1,17701858710555E-5;
1,02882813003529E-5;
9,5208178630788E-6;
1,18791897107571E-5;
1,64683879413093E-5;
1,90918617767188E-5;
1,52372057761278E-5;
3,8153981920741E-6;
-1,13509532880519E-5;
-2,36332791394036E-5;
-2,78445338712363E-5;
-2,34897750608696E-5;
-1,46554168092021E-5;
-6,77729763420938E-6;
-2,87343755950784E-6;
-2,06976566343391E-6;
-1,26875061186789E-6;
1,7213106063341E-6;
6,30582034577217E-6;
9,93689392847747E-6;
1,07258988998178E-5;
9,38851095967992E-6;
8,70311681311466E-6;
1,08723864951334E-5;
1,50795796094881E-5;
1,74943179071055E-5;
1,39981064796271E-5;
3,59497322051419E-6;
-1,02328213430917E-5;
-2,14453764650223E-5;
-2,53154581708254E-5;
-2,13881396921796E-5;
-1,33786310918005E-5;
-6,23035292051969E-6;
-2,68831483601294E-6;
-1,95962282912353E-6;
-1,23108442923989E-6;
1,4875839937111E-6;
5,6567330813593E-6;
8,96398034143346E-6;
9,69531023373208E-6;
8,49881995546361E-6;
7,89261393641094E-6;
9,87287155639088E-6;
1,37002643966771E-5;
1,59062832247901E-5;
1,27615163662584E-5;
3,36196718849297E-6;
-9,14559070475702E-6;
-1,93013559918475E-5;
-2,2831103486497E-5;
-1,93196171668639E-5;
-1,21173696017083E-5;
-5,68400679571822E-6;
-2,49638992280193E-6;
-1,84117732268906E-6;
-1,18393444548592E-6;
1,26826603314402E-6;
5,02962750019216E-6;
8,01834471015686E-6;
8,69128427828047E-6;
7,63051773753299E-6;
7,09984169831357E-6;
8,89378029724897E-6;
1,23485673941543E-5;
1,43487387465346E-5;
1,15443320685723E-5;
3,1211601032686E-6;
-8,1005260364818E-6;
-1,72254746443893E-5;
-2,0420274798486E-5;
-1,73086575964299E-5;
-1,08870976880781E-5;
-5,1457120875313E-6;
-2,30114493419278E-6;
-1,71706824553621E-6;
-1,12909180425895E-6;
1,06460140951487E-6;
4,43036361552464E-6;
7,10950972347439E-6;
7,72420941495239E-6;
6,79277851879327E-6;
6,33338450734195E-6;
7,94584742240396E-6;
1,10393065795855E-5;
1,28388620206846E-5;
1,03604860474395E-5;
2,87674052734018E-6;
-7,10638413449645E-6;
-1,52370104367155E-5;
-1,81060045302204E-5;
-1,53749050534719E-5;
-9,7003406201336E-6;
-4,62163056788965E-6;
-2,10558625839403E-6;
-1,58963038060154E-6;
-1,06821442569304E-6;
8,77358994480262E-7;
3,86340430592556E-6;
6,24488604810944E-6;
6,80222582685758E-6;
5,99282545570932E-6;
5,60004091230225E-6;
7,03760861026338E-6;
9,78428904615699E-6;
1,13903741724537E-5;
9,22120439703115E-6;
2,63231850962063E-6;
-6,16971941521886E-6;
-1,33508143736491E-5;
-1,59061759229921E-5;
-1,3533708361063E-5;
-8,56699234261439E-6;
-4,11676049220344E-6;
-1,91228624549094E-6;
-1,46092417266865E-6;
-1,00283228124663E-6;
7,06894871056321E-7;
3,33196992783079E-6;
5,42999403815897E-6;
5,9314656459292E-6;
5,23613988299698E-6;
4,90501452778714E-6;
6,17564272382283E-6;
8,5926331042597E-6;
1,00139073255556E-5;
8,13528058944385E-6;
2,39096028477517E-6;
-5,29513835525815E-6;
-1,15778116690836E-5;
-1,38340997123895E-5;
-1,17965891590235E-5;
-7,4945941032685E-6;
-3,63505058671098E-6;
-1,72340928475189E-6;
-1,33273543246457E-6;
-9,34335590922292E-7;
5,53222376080657E-7;
2,83820907357647E-6;
4,66871120249196E-6;
5,11630382024154E-6;
4,52667734508356E-6;
4,25210899045526E-6;
5,36479643218246E-6;
7,47107618235877E-6;
8,7173569959927E-6;
7,10936403930887E-6;
2,15524963566538E-6;
-4,48555442933817E-6;
-9,92547096895524E-6;
-1,18990536557743E-5;
-1,01716978915307E-5;
-6,48859543154142E-6;
-3,17949803311528E-6;
-1,54073765354115E-6;
-1,20658550790743E-6;
-8,63965702898647E-7;
4,16076259973036E-7;
2,38334354203978E-6;
3,96348893733177E-6;
4,35959013623001E-6;
3,86706138665975E-6;
3,64390674401111E-6;
4,60840622334075E-6;
6,42427647554892E-6;
7,5062199943233E-6;
6,14819475347171E-6;
1,92732224240698E-6;
-3,7424113096819E-6;
-8,39826980650566E-6;
-1,01068072784774E-5;
-8,66423391535493E-6;
-5,55261758360011E-6;
-2,75225937818596E-6;
-1,36569978387578E-6;
-1,08374882933653E-6;
-7,92823861618903E-7;
2,9496385488061E-7;
1,96781203732913E-6;
3,31554710192932E-6;
3,66284948432928E-6;
3,25876946160399E-6;
3,08192816887067E-6;
3,90848793702561E-6;
5,45507325399138E-6;
6,38390021055405E-6;
5,25486028545113E-6;
1,70890221471534E-6;
-3,06591090006067E-6;
-6,99810760421773E-6;
-8,46011434896261E-6;
-7,27685633846988E-6;
-4,68869515794106E-6;
-2,35475902404796E-6;
-1,1994154039697E-6;
-9,65280103595446E-7;
-7,21872212756365E-7;
1,89214463676217E-7;
1,59138330507074E-6;
2,72506033439721E-6;
3,02648192033664E-6;
2,70228463596758E-6;
2,56677735116538E-6;
3,26592570701778E-6;
4,56474209540542E-6;
5,35198811363236E-6;
4,43099966115172E-6;
1,50134580105318E-6;
-2,45521996851842E-6;
-5,72471605094191E-6;
-6,95916026049587E-6;
-6,01006030750538E-6;
-3,89751003385978E-6;
-1,98777994175078E-6;
-1,04271882362022E-6;
-8,5202587011389E-7;
-6,51946284035536E-7;
9,80108696488832E-8;
1,25327335443783E-6;
2,19132026349423E-6;
2,44993474436645E-6;
2,19726102912313E-6;
2,09828130010474E-6;
2,68063484849923E-6;
3,75322989919216E-6;
4,41054077030931E-6;
3,67701714095425E-6;
1,30566568851288E-6;
-1,90865209526207E-6;
-4,5760060720269E-6;
-5,60198272575779E-6;
-4,86252111735905E-6;
-3,17859259204364E-6;
-1,65156222863415E-6;
-8,96200122016864E-7;
-7,44646538952577E-7;
-5,83757337928435E-7;
2,04354008824757E-8;
9,52249610657024E-7;
1,7128987283976E-6;
1,9318665103285E-6;
1,74265336624312E-6;
1,67562674677723E-6;
2,15172729726175E-6;
3,01936439556051E-6;
3,55832317683271E-6;
2,99227960236978E-6;
1,12258010722655E-6;
-1,4238316703824E-6;
-3,54840385901681E-6;
-4,3848530484217E-6;
-3,83140972550468E-6;
-2,53052268242781E-6;
-1,34588113158069E-6;
-7,6022798690251E-7;
-6,4363793429155E-7;
-5,17900979454157E-7;
-4,45051304491019E-8;
6,86719280437355E-7;
1,28778263376296E-6;
1,47030184612842E-6;
1,33686023992249E-6;
1,29746818210612E-6;
1,67764816051345E-6;
2,36105851226204E-6;
2,79303267112774E-6;
2,37528308796387E-6;
9,5254288715864E-7;
-9,97846951740462E-7;
-2,63714498023652E-6;
-3,30261220006166E-6;
-2,91267606477584E-6;
-1,9510971502788E-6;
-1,07012305874384E-6;
-6,34976951928745E-7;
-5,49341155877483E-7;
-4,54865113635769E-7;
-9,78454554220185E-8;
4,54820634113985E-7;
9,13501618377163E-7;
1,06275677904822E-6;
9,77825968126281E-7;
9,620352153043E-7;
1,25631195185211E-6;
1,77548880147554E-6;
2,11150901734124E-6;
1,82382027414893E-6;
7,95775361180215E-7;
-6,27382619155882E-7;
-1,83653728947406E-6;
-2,34898228545805E-6;
-2,10130662296531E-6;
-1,43749026620957E-6;
-8,23361142868794E-7;
-5,20459427435205E-7;
-4,61965703307021E-7;
-3,9503605150666E-7;
-1,40636042564224E-7;
2,54489015143796E-7;
5,87237675470538E-7;
7,06364954119925E-7;
6,6315021144565E-7;
6,67231895234715E-7;
8,85215727556858E-7;
1,2592470465108E-6;
1,50991323496369E-6;
1,33511752038584E-6;
6,52298852273402E-7;
-3,08830331345887E-7;
-1,14019666772653E-6;
-1,51684015029936E-6;
-1,39155448745707E-6;
-9,86394026889755E-7;
-6,04410109474996E-7;
-4,16543566390075E-7;
-3,81603021438817E-7;
-3,38707620041934E-7;
-1,73926297962528E-7;
8,35270853765341E-8;
3,05927810106081E-7;
3,97978293852014E-7;
3,90178607245297E-7;
4,10710707409802E-7;
5,6153887871431E-7;
8,08489128152026E-7;
9,83889006638119E-7;
9,05968019751552E-7;
5,21962003563536E-7;
-3,84024986721968E-8;
-5,41257108853234E-7;
-7,98459885089016E-7;
-7,77139456932586E-7;
-5,94140933362545E-7;
-4,11887520179106E-7;
-3,22981114535259E-7;
-3,08245182759752E-7;
-2,86093127523758E-7;
-1,98750406293969E-7;
-6,03443339197489E-8;
6,63469074164977E-8;
1,34259180158826E-7;
1,5608294434509E-7;
1,89957494384159E-7;
2,82241553525882E-7;
4,1906013030943E-7;
5,28714700093507E-7;
5,32847249872086E-7;
4,044720387105E-7;
1,87790304207827E-7;
-3,25467045279253E-8;
-1,85720858334376E-7;
-2,51429134509117E-7;
-2,56821019154474E-7;
-2,442670422982E-7;
-2,39428243050811E-7;
-2,41796572400873E-7;
-2,37328069794023E-7;
-2,16105686362333E-7;
-1,79437020379465E-7;
-1,34818667416945E-7;
-8,82359476321734E-8;
-4,20711103793839E-8;
2,34820183197249E-9;
4,41395693380988E-8;
8,65998692779797E-8;
1,39425626497896E-7;
2,12009078846697E-7;
2,99413843022435E-7;
3,73661486396387E-7;
3,93254491026026E-7;
3,29707319877913E-7;
1,9241352800621E-7;
2,96311838348838E-8;
-9,99185179352092E-8;
-1,65459577031464E-7;
-1,82085395106692E-7;
-1,92485685405029E-7;
-2,26951204708085E-7;
-2,76053022941996E-7;
-3,0090497873249E-7;
-2,72994473457557E-7;
-2,07260413304573E-7;
-1,54793218277559E-7;
-1,5602711575049E-7;
-1,93356383592697E-7;
-1,89081070135061E-7;
-6,04254288264583E-8;
2,06275905067718E-7;
5,23078584325285E-7;
7,43482975326061E-7;
7,56210376167001E-7;
5,61293477204949E-7;
2,69347673391238E-7;
2,28532759085235E-8;
-1,00589692174109E-7;
-1,28884981744105E-7;
-1,51575610696659E-7;
-2,32186362797469E-7;
-3,52455496999063E-7;
-4,35221308789391E-7;
-4,23484082031237E-7;
-3,42458869306535E-7;
-2,84147737164437E-7;
-3,21531926154823E-7;
-4,25301802546163E-7;
-4,61940772570837E-7;
-2,88389238515471E-7;
1,2447488944147E-7;
6,3982952415284E-7;
1,02538314616464E-6;
1,10209883989957E-6;
8,62075478978121E-7;
4,66460874414381E-7;
1,25773517200866E-7;
-4,42902528167091E-8;
-8,1915713400266E-8;
-1,14560988481212E-7;
-2,326611905043E-7;
-4,10835456186212E-7;
-5,40999170998116E-7;
-5,43107732200647E-7;
-4,50589566767401E-7;
-3,88362159124232E-7;
-4,55616373972141E-7;
-6,13689783442712E-7;
-6,84257226633931E-7;
-4,75809967643294E-7;
5,33624166673212E-8;
7,27556565233875E-7;
1,24601435815731E-6;
1,37549776300452E-6;
1,10149137987203E-6;
6,25043701165696E-7;
2,10567148074076E-7;
4,00275518128307E-9;
-4,08588753538746E-8;
-8,13592955231229E-8;
-2,29158275728572E-7;
-4,53296078030104E-7;
-6,21366024703699E-7;
-6,35165946075118E-7;
-5,34494770769155E-7;
-4,70017816427915E-7;
-5,61446928319844E-7;
-7,62870030724571E-7;
-8,61023434017185E-7;
-6,2655312235726E-7;
-7,74196136963058E-9;
7,89745252111722E-7;
1,4121805544352E-6;
1,58426251831092E-6;
1,28606292236172E-6;
7,49060192660475E-7;
2,78938520306157E-7;
4,48695040606184E-8;
-5,37147206995375E-9;
-5,18505052176079E-8;
-2,22393336319541E-7;
-4,81831660857411E-7;
-6,7930724821034E-7;
-7,0282109049735E-7;
-5,96905326885247E-7;
-5,31599212639514E-7;
-6,420833111651E-7;
-8,77054729164903E-7;
-9,97075661248357E-7;
-7,44379576439734E-7;
-5,95531439442327E-8;
8,2968189621812E-7;
1,53036739360509E-6;
1,7359070217563E-6;
1,42204452570488E-6;
8,42325816294397E-7;
3,32547677267416E-7;
7,8901192771901E-8;
2,49148238367936E-8;
-2,58869619477412E-8;
-2,13022891231943E-7;
-4,98318690243364E-7;
-7,1765207396788E-7;
-7,49075432555157E-7;
-6,40419424569235E-7;
-5,75480066431903E-7;
-7,00449146519117E-7;
-9,60269741735803E-7;
-1,0970454948682E-6;
-8,32908168334474E-7;
-1,02793641580098E-7;
8,50452093165698E-7;
1,60670333583605E-6;
1,83754552523174E-6;
1,51537523521523E-6;
9,08480448733865E-7;
3,72995854346239E-7;
1,06690570500985E-7;
5,03777679157221E-8;
-3,29903398873819E-9;
-2,01633546658583E-7;
-5,04503353062099E-7;
-7,39053376914487E-7;
-7,76752632082894E-7;
-6,67486463998149E-7;
-6,03902426434928E-7;
-7,39312374674629E-7;
-1,01633256657563E-6;
-1,16533196104018E-6;
-8,95590152113454E-7;
-1,38190115084917E-7;
8,54914973121249E-7;
1,64692577220809E-6;
1,89586210310702E-6;
1,57164148823477E-6;
9,50959699490724E-7;
4,01814157458031E-7;
1,28820846382926E-7;
7,14033574029036E-8;
1,61090615993702E-8;
-1,88746311618692E-7;
-5,01999667199695E-7;
-7,45980902405365E-7;
-7,88492825600763E-7;
-6,80397935208307E-7;
-6,18968600330467E-7;
-7,61277555111048E-7;
-1,04883307688176E-6;
-1,20607400139976E-6;
-9,35683442277598E-7;
-1,66459169139785E-7;
8,45703437254885E-7;
1,65636329787314E-6;
1,91707834340915E-6;
1,59605837483068E-6;
9,72986487693431E-7;
4,20450797859464E-7;
1,45860569090997E-7;
8,83765976218168E-8;
3,25366733365728E-8;
-1,74825460634338E-7;
-4,92284206075766E-7;
-7,40709463188877E-7;
-7,86727591940766E-7;
-6,81272663236167E-7;
-6,22631491177202E-7;
-7,68763087473374E-7;
-1,06111395194404E-6;
-1,22313547683898E-6;
-9,56244044649746E-7;
-1,88305105156336E-7;
8,25220417591684E-7;
1,63992267370753E-6;
1,90694163224488E-6;
1,5934521119737E-6;
9,77549489162873E-7;
4,30264698656322E-7;
1,58359371882268E-7;
1,01677952120284E-7;
4,62017484312085E-8;
-1,60270440108633E-7;
-4,76699982483786E-7;
-7,25324758247897E-7;
-7,7370046358844E-7;
-6,72066036429047E-7;
-6,16691564618165E-7;
-7,64009684993314E-7;
-1,05627013396138E-6;
-1,22008728767541E-6;
-9,60109142005383E-7;
-2,04411673126031E-7;
7,95643664475202E-7;
1,60208712480458E-6;
1,8707142297604E-6;
1,56825697440593E-6;
9,67409887636887E-7;
4,32523086282825E-7;
1,66845016186006E-7;
1,11680641261367E-7;
5,73223818788629E-8;
-1,45428065755312E-7;
-4,56457161538292E-7;
-7,01715577986891E-7;
-7,51442476667713E-7;
-6,54556057308538E-7;
-6,02796677597455E-7;
-7,49065980411283E-7;
-1,03713553347072E-6;
-1,20021811908625E-6;
-9,49899599056595E-7;
-2,1542896193412E-7;
7,58925035776624E-7;
1,54691787188726E-6;
1,81318274636723E-6;
1,52450769999783E-6;
9,45085873910203E-7;
4,28396866738971E-7;
1,71816089648939E-7;
1,18740729385039E-7;
6,6117348120525E-8;
-1,30591260295731E-7;
-4,32633328164167E-7;
-6,71582996941801E-7;
-7,21793144567417E-7;
-6,30353309973887E-7;
-5,82437189342826E-7;
-7,25795579733307E-7;
-1,00629476187093E-6;
-1,16651937060385E-6;
-9,28010102138857E-7;
-2,21979077488618E-7;
7,16802760898963E-7;
1,47806670867173E-6;
1,73866173679699E-6;
1,46585427131411E-6;
9,12866939392406E-7;
4,1895712876502E-7;
1,73743569124714E-7;
1,23207921375128E-7;
7,28062001680105E-8;
-1,16004823921225E-7;
-4,06183536855153E-7;
-6,3644870413321E-7;
-6,86398251814083E-7;
-6,00902501117027E-7;
-5,56962456531122E-7;
-6,95882985284141E-7;
-9,66078362734238E-7;
-1,1216994912784E-6;
-8,96616595195101E-7;
-2,2464905420847E-7;
6,70805792584078E-7;
1,39878563888952E-6;
1,65100497565162E-6;
1,39556641338584E-6;
8,72812619499906E-7;
4,0518104515057E-7;
1,73065699617879E-7;
1,2540601219811E-7;
7,76039458663851E-8;
-1,01869069247405E-7;
-3,77944716063085E-7;
-5,97652533096435E-7;
-6,46716957292245E-7;
-5,67490173515434E-7;
-5,27568923157747E-7;
-6,60830998325095E-7;
-9,18575256380635E-7;
-1,0681860340544E-6;
-8,57681990659301E-7;
-2,23986238038517E-7;
6,22274106158087E-7;
1,31195076083628E-6;
1,55363444483347E-6;
1,31655049421789E-6;
8,2676150833448E-7;
3,87950494810009E-7;
1,70187726798748E-7;
1,25644918198741E-7;
8,07212013557326E-8;
-8,83426023533823E-8;
-3,48641329317524E-7;
-5,56373624488358E-7;
-6,04034572065889E-7;
-5,31250594665507E-7;
-4,9532044347126E-7;
-6,21974251086604E-7;
-8,65642240105813E-7;
-1,00814128190266E-6;
-8,12957494416526E-7;
-2,20501755636536E-7;
5,72358633049058E-7;
1,22007349538139E-6;
1,44955053284491E-6;
1,23136973542599E-6;
7,76342058905979E-7;
3,68053299743147E-7;
1,65484196952667E-7;
1,24210615697748E-7;
8,23556323916115E-8;
-7,55494404511745E-8;
-3,18894777535836E-7;
-5,13629951707127E-7;
-5,59468700763116E-7;
-4,93174576309543E-7;
-4,61147091364109E-7;
-5,80487367639036E-7;
-8,08911179565174E-7;
-9,43467955836761E-7;
-7,63997177273238E-7;
-2,14664131930624E-7;
5,22045669716507E-7;
1,12532954300828E-6;
1,34136331054762E-6;
1,14225474701026E-6;
7,22977616519016E-7;
3,461920115221E-7;
1,59297661178495E-7;
1,21373373779E-7;
8,27000477461991E-8;
-6,35824736828177E-8;
-2,89229397526971E-7;
-4,70297720496969E-7;
-5,1398389158404E-7;
-4,54114390356796E-7;
-4,25854958813685E-7;
-5,37392385343703E-7;
-7,498037557109E-7;
-8,75829696216531E-7;
-7,12167228831401E-7;
-2,0690391269954E-7;
4,72161665457722E-7;
1,02958206639649E-6;
1,23131659802656E-6;
1,051132019848E-6;
6,6790920116631E-7;
3,22983285445568E-7;
1,51935632733432E-7;
1,17377762454271E-7;
8,19361465942627E-8;
-5,25014389893308E-8;
-2,60082331128111E-7;
-4,27112761935468E-7;
-4,68395600583361E-7;
-4,14803897034562E-7;
-3,90138717808007E-7;
-4,93566769447093E-7;
-6,89550197304329E-7;
-8,06666560273508E-7;
-6,58649711174248E-7;
-1,97612338613461E-7;
4,23385674305423E-7;
9,34399913520346E-7;
1,12131457771148E-6;
9,5964437594364E-7;
6,12197954025788E-7;
2,98963691698278E-7;
1,43673709955236E-7;
1,12446185371056E-7;
8,02305906957547E-8;
-4,23458779817326E-8;
-2,31810284913155E-7;
-3,84693910379163E-7;
-4,23391707971346E-7;
-3,75855508151092E-7;
-3,54581290733314E-7;
-4,49755590261707E-7;
-6,29194100460084E-7;
-7,37203334303043E-7;
