4,87974083221444E-10;
1,83078528544844E-9;
2,4602758999053E-9;
2,2671439971198E-9;
1,59800459460993E-9;
9,57946692190851E-10;
6,46415356399267E-10;
6,02689507395795E-10;
5,42592456523248E-10;
2,55839931021601E-10;
-2,09059494018331E-10;
-6,16129953316932E-10;
-7,78859636537313E-10;
-7,48510173587187E-10;
-7,76917269698981E-10;
-1,0785011827963E-9;
-1,59096111586353E-9;
-1,95938541698111E-9;
-1,78073213242578E-9;
-9,20007458423621E-10;
3,45464542530718E-10;
1,47849395598773E-9;
2,02307961330584E-9;
1,88375647764749E-9;
1,34400660620011E-9;
8,23765839623445E-10;
5,72396270023441E-10;
5,38570172585878E-10;
4,91284874891571E-10;
2,54740604932941E-10;
-1,33668244311179E-10;
-4,76243556391001E-10;
-6,18410277240465E-10;
-6,02188822146139E-10;
-6,35450655624514E-10;
-8,94331142811152E-10;
-1,32865098835336E-9;
-1,6471802421739E-9;
-1,51533934564332E-9;
-8,1774459090424E-10;
2,22075819313765E-10;
1,16252777671229E-9;
1,62708959358746E-9;
1,53467498938968E-9;
1,11164601127797E-9;
6,98477521048165E-10;
5,00301624600526E-10;
4,76705502825872E-10;
4,40892766310601E-10;
2,49987260794185E-10;
-6,84442951731207E-11;
-3,52771200589525E-10;
-4,75461945317439E-10;
-4,71423144216384E-10;
-5,07315799166468E-10;
-7,25911076919484E-10;
-1,08921958739792E-9;
-1,36153284566835E-9;
-1,27047028534613E-9;
-7,19398244417442E-10;
1,14780654873769E-10;
8,79547799791656E-10;
1,27218187544487E-9;
1,22089754617814E-9;
9,01823677023704E-10;
5,84434564328806E-10;
4,32632750358067E-10;
4,18656242850188E-10;
3,92316373302279E-10;
2,40720133396303E-10;
-1,22058135097588E-11;
-2,42821492087278E-10;
-3,48327925438276E-10;
-3,54210793925752E-10;
-3,92631060432974E-10;
-5,74542340820351E-10;
-8,72855278010044E-10;
-1,10255478372613E-9;
-1,04662244709597E-9;
-6,27358435834814E-10;
2,28119032447421E-11;
6,3127346658584E-10;
9,56972949385025E-10;
9,40089072471999E-10;
7,1285822760185E-10;
4,80499279615525E-10;
3,71387375092951E-10;
3,64531500111002E-10;
3,45801926030275E-10;
2,30353685252167E-10;
3,49367410799065E-11;
-1,47452935640238E-10;
-2,37796984486927E-10;
-2,51824704467393E-10;
-2,90714196390694E-10;
-4,4032953337671E-10;
-6,78626143715855E-10;
-8,68717180628185E-10;
-8,44664266696617E-10;
-5,40313851487494E-10;
-5,31961250265039E-11;
4,13939090163972E-10;
6,79298184843769E-10;
6,90540618338614E-10;
5,4262118577388E-10;
3,85877031840259E-10;
3,13273764965212E-10;
3,1272761147421E-10;
3,02266014843277E-10;
2,18927156386689E-10;
7,3698301163141E-11;
-6,58687578898554E-11;
-1,40972493503208E-10;
-1,62830741476987E-10;
-2,01956070759916E-10;
-3,20711762085657E-10;
-5,06992156635419E-10;
-6,61100282148662E-10;
-6,62754168287432E-10;
-4,60577934071353E-10;
-1,16217125735446E-10;
2,26130353982009E-10;
4,35947578523757E-10;
4,73057007425401E-10;
3,93222990547687E-10;
2,99942119977246E-10;
2,60291162985719E-10;
2,64479692270516E-10;
2,60590022974104E-10;
2,05291571171204E-10;
1,04057432455916E-10;
3,38229808579813E-12;
-5,81550594284477E-11;
-8,46716485363498E-11;
-1,22789178679866E-10;
-2,15912503576396E-10;
-3,55487438332733E-10;
-4,77401632419281E-10;
-5,01115674884532E-10;
-3,8635727678426E-10;
-1,67162218455704E-10;
6,65245253612518E-11;
2,27729150818182E-10;
2,83043820747822E-10;
2,62262604602319E-10;
2,25104176976547E-10;
2,1192945453577E-10;
2,20629330463615E-10;
2,2284676928282E-10;
1,92086656407912E-10;
1,28633882433865E-10;
6,08683178351674E-11;
1,22445870599601E-11;
-1,8851642484175E-11;
-5,58165130521716E-11;
-1,24425084655186E-10;
-2,23462921852715E-10;
-3,17221190787541E-10;
-3,5782868737125E-10;
-3,17846288485382E-10;
-2,07027205089959E-10;
-6,84289677444157E-11;
4,88691016524672E-11;
1,20065718866894E-10;
1,48757619775911E-10;
1,57906649522859E-10;
1,67847377773225E-10;
1,80891719616426E-10;
1,87474921012924E-10;
1,76153334543662E-10;
1,46728962845932E-10;
1,07956682045527E-10;
7,00032572356576E-11;
3,67085072131956E-11;
1,6226656118283E-13;
-4,73279493308582E-11;
-1,09073234390641E-10;
-1,77879765657833E-10;
-2,3311701998613E-10;
-2,55703988886415E-10;
-2,37516802796929E-10;
-1,80955415120042E-10;
-1,0041544957607E-10;
-1,77463148850555E-11;
5,15364935804396E-11;
1,00178527634536E-10;
1,28529418518365E-10;
1,44443721201159E-10;
1,55132020918047E-10;
1,61774097778851E-10;
1,60584560815359E-10;
1,46584356741432E-10;
1,18609741055403E-10;
8,31779262022387E-11;
4,84679487684969E-11;
1,82620660379806E-11;
-1,20231634603913E-11;
-5,65203125606303E-11;
-1,23419264272378E-10;
-2,00217860201571E-10;
0,0093334337878806;
0,0226297295546652;
0,016372737050753;
0,00943309604360474;
0,0121693917561747;
0,00702616738115897;
0,00563481722252551;
0,00458271016409349;
0,000840500214239374;
0,00103239251726183;
-0,00119043932666335;
-0,00199195248199218;
-0,00280713677911578;
-0,00455368120011293;
-0,00488732491217438;
-0,00585590063404052;
-0,00594121720383594;
-0,00618248828077458;
-0,0069935766989143;
-0,00792070369748599;
-0,00934888826826553;
-0,01024288905529;
-0,0105184997199882;
-0,0101085233707818;
-0,00920766476522976;
-0,0084302967947537;
-0,00783043410554418;
-0,00745747141476377;
-0,00704805318144406;
-0,00641867693876099;
-0,00567545346024659;
-0,00495848707569764;
-0,00445308122817545;
-0,00409076726244431;
-0,00366382574924762;
-0,00302656731787049;
-0,00222823240802094;
-0,00157282894733795;
-0,00136107641275426;
-0,00166524568026852;
-0,00222572570299099;
-0,00258706217187951;
-0,00240676272637004;
-0,00165718501993351;
-0,000624734170055867;
0,000316669668285827;
0,000963663559435281;
0,0013758689250583;
0,00176513182155189;
0,00227846204741718;
0,00287371201030598;
0,00337820926526657;
0,00366494248310491;
0,00378442576304203;
0,00392474778045767;
0,00423344821734401;
0,00465410333859067;
0,0049291296810882;
0,00478539622758936;
0,00416205584053948;
0,00329839383267115;
0,00260120449734841;
0,00238404629333958;
0,00267133410803266;
0,00320917043061572;
0,0036653954989446;
0,00385876828065926;
0,00384594468160971;
0,00381730507541937;
0,00390618897574414;
0,00407638947948254;
0,00417462017995994;
0,00408914838664963;
0,0038659386990934;
0,00367395093685267;
0,00364551953915207;
0,0037308839951619;
0,00370125650903112;
0,00331394910402177;
0,00251555480560388;
0,00151956409281798;
0,00068808831623577;
0,000299920997578707;
0,000376495927563297;
0,000692034775338854;
0,00095143229844228;
0,000993755264263199;
0,000869183504319603;
0,000746304682794007;
0,000742935924520095;
0,000826536086099545;
0,000860915109039134;
0,000746775687508518;
0,000524376945622812;
0,000342641990379269;
0,000317919008219206;
0,000405552768062371;
0,00040286069710035;
9,51198734756163E-5;
-0,000565180954076457;
-0,010723616762106;
-0,0246910042649406;
-0,0187063550262754;
-0,0116223597332014;
-0,0139972389961802;
-0,00853592300069678;
-0,00701192129532113;
-0,00596902286326867;
-0,00223033987958976;
-0,00231727171868633;
8,97662967910616E-5;
0,00103463632531682;
0,0018647431529339;
0,00353260280314392;
0,0038239268284532;
0,00488786348734643;
0,00516656283266592;
0,00552145652358584;
0,00617835303652241;
0,00664177267087847;
0,00746064848151704;
0,00787759548826368;
0,00802158570039151;
0,00784052966642586;
0,00735462420859306;
0,00695105581500306;
0,00655991786810693;
0,00626843172867346;
0,00594145076168812;
0,00548465818694881;
0,00497855091158792;
0,00445879681751928;
0,00403463706543106;
0,00366783384832119;
0,0032633544781501;
0,0027632351583004;
0,00218227015716849;
0,00167055030754722;
0,00136622457737498;
0,00130576067868602;
0,00137147101739352;
0,00134804298152635;
0,00107699017048333;
0,0005435833321358;
-0,00011633479132735;
-0,000724583289469502;
-0,00118434708792625;
-0,00152244938909009;
-0,00184024514490458;
-0,00220794454309507;
-0,00260531802509529;
-0,00294924131734968;
-0,00317776838833304;
-0,00331523377139275;
-0,00345292211493967;
-0,00366309203749546;
-0,00391872168113606;
-0,00409377804240803;
-0,00405387331006236;
-0,00376838324412494;
-0,00335502068545853;
-0,00301538573163045;
-0,00290602891587104;
-0,00304040691674771;
-0,0032929099280402;
-0,00349792690816647;
-0,00356466130601175;
-0,00352164924951009;
-0,00346521644078807;
-0,0034634000235373;
-0,00349852984199928;
-0,00349315057019448;
-0,00339050013540686;
-0,00321419506544103;
-0,00305115642690271;
-0,00297002098938874;
-0,00294586712226358;
-0,00286092422724143;
-0,00258939467258327;
-0,00210309148393532;
-0,00151283635269237;
-0,00100788106820627;
-0,000734996785523178;
-0,000706571278780796;
-0,000804732556459027;
-0,000874202859597962;
-0,000829830049508845;
-0,000698122847995504;
-0,000568858995618084;
-0,000505246850018935;
-0,00049030731439796;
-0,000451224806437019;
-0,000334548507947307;
-0,000161839134819054;
-1,36441191909752E-5;
4,66546417313724E-5;
4,29418789209273E-5;
8,55698412552768E-5;
0,000292251247272717;
0,000689730543837079;
0,00117541291488047;
0,00157388831535096;
0,00174942880665048;
0,00169131702697966;
0,00150982578042127;
0,00134983209637938;
0,00129097277175381;
0,00130920948639474;
0,00132185059783688;
0,00127090375039055;
0,00117271468619627;
0,00109530384499627;
0,00108867160058143;
0,00113332936947148;
0,00115522401063955;
0,00109623092534612;
0,000978922777532364;
0,000905712643513406;
0,000985677741793461;
0,00124377317286236;
0,00158554284127393;
0,00184943148358033;
0,00191061407962315;
0,00175959475329654;
0,00149834117182754;
0,00126056772957267;
0,0011197715319629;
0,00105394588718518;
0,000987128115446889;
0,000866119319797738;
0,000706078809479417;
0,000569606349581132;
0,000502666983118293;
0,000487363223013568;
0,000455721464961808;
0,000354429725616989;
0,000204210672811295;
9,89342628813739E-5;
0,000138467238722193;
0,000345512027854907;
0,00063340345161396;
0,000854135114625331;
0,00089343241555272;
0,000742586969349028;
0,000494783270866606;
0,000272121481736248;
0,000141579625147062;
8,28694313389471E-5;
2,64722013604026E-5;
-7,63033681222437E-5;
-0,000211769134688742;
-0,000323008740521504;
-0,000368321521030791;
-0,000364219097239785;
-0,000372793305542888;
-0,000442732772533155;
-0,000555322834101408;
-0,000625342428360713;
-0,000562198357887686;
-0,000345503433980395;
-5,42359739175653E-5;
0,000177000468015929;
0,000244344837007805;
0,000139814978341224;
-5,21471615992414E-5;
-0,000220953406711846;
-0,00030605828347621;
-0,000326011776086389;
-0,000343916892891574;
-0,000403962751345523;
-0,000493856064102373;
-0,00056221522081518;
-0,000571455436186277;
-0,000536623940144121;
-0,000513919526723564;
-0,000547379905348968;
-0,0006201588115506;
-0,00065541578991621;
-0,000571529791625311;
-0,000350239270200818;
-6,28365088505859E-5;
0,000169348521581211;
0,000252779136254839;
0,000180302028616719;
2,79288829892118E-5;
-0,000104873247054459;
-0,000163700023643263;
-0,000165257854375847;
-0,000166248242034563;
-0,000206336748918496;
-0,000274461304450312;
-0,00032450254958763;
-0,00032275107173128;
-0,000282699200463304;
-0,000254692539304231;
-0,000278135787328348;
-0,000337890583981092;
-0,000365144482777837;
-0,00028686930238477;
-8,67512142909002E-5;
0,000171472571764016;
0,000379419860319862;
0,000453622647430607;
0,000387792392362013;
0,000249849274374015;
0,000128576134987354;
7,25118870485134E-5;
6,67932048937E-5;
6,09497106533113E-5;
1,97224764198996E-5;
-4,69755814396793E-5;
-9,8059074180704E-5;
-0,000103515339383192;
-7,53093910926124E-5;
-5,81338843343459E-5;
-8,6925660251857E-5;
-0,000148179288684082;
-0,000180784186535325;
-0,000119949210363386;
4,8782783112921E-5;
0,000268925551922462;
0,000444501158214211;
0,000501669050699782;
0,000434943128388589;
0,000304473990910489;
0,00018880289644694;
0,000130842755470771;
0,00011747216741049;
0,000104147742909084;
5,97871233236404E-5;
-6,82628302249046E-6;
-5,94402277717332E-5;
-7,15961841669471E-5;
-5,38343557658081E-5;
-4,54977239887638E-5;
-7,73085473582025E-5;
-0,000137355139558259;
-0,000171888705466245;
-0,000123979777549196;
1,90365453524702E-5;
0,000207530578027986;
0,000357263356093482;
0,00040348630359891;
0,000341428574162489;
0,000223832427820073;
0,000119497964539331;
6,59780899901692E-5;
5,17704744665919E-5;
3,79085175769316E-5;
-2,77343318603867E-6;
-6,25928670040364E-5;
-0,000109894516171561;
-0,000121602896709187;
-0,000106937211253102;
-0,000100216975223796;
-0,000128215456380943;
-0,000180549562810254;
-0,000210430434812887;
-0,000168350473751353;
-4,33439368085852E-5;
0,000121401656624742;
0,000252676587031223;
0,00029426334501157;
0,000242043150759121;
0,000141780238229455;
5,31143175136927E-5;
8,55966869576548E-6;
-1,87156647861138E-6;
-1,19206635649498E-5;
-4,50877598697916E-5;
-9,47281041332566E-5;
-0,000133496002881525;
-0,00014148377662217;
-0,000126672599070211;
-0,000118681105971397;
-0,000140589860954271;
-0,000183444860495819;
-0,000206957957195836;
-0,000168546645888909;
-5,88212592589171E-5;
8,5053096987067E-5;
0,000200162622506153;
0,000238248217533977;
0,00019580064094599;
0,000112086023578242;
3,82198178969443E-5;
2,03583338569244E-6;
-5,03344495457437E-6;
-1,18590698188488E-5;
-3,85249094123846E-5;
-7,93428988096724E-5;
-0,000110961854691231;
-0,000116404852551865;
-0,00010249222957888;
-9,44703098063552E-5;
-0,000111986113872248;
-0,000147402873060653;
-0,000166448008553465;
-0,000132942608114301;
-3,89427854935423E-5;
8,39741555301102E-5;
0,000182431189843915;
0,000215536522168549;
0,000180348846317434;
0,00011013379597404;
4,81390858700596E-5;
1,78852603796511E-5;
1,21248116411468E-5;
6,48778938885466E-6;
-1,59532560136776E-5;
-5,03875326317456E-5;
-7,71397782062085E-5;
-8,19265432625442E-5;
-7,04927098535148E-5;
-6,4054767742338E-5;
-7,90971815384387E-5;
-0,000109192450873558;
-0,000125595691044773;
-9,80082752521013E-5;
-1,98083304874238E-5;
8,25638199128008E-5;
0,000164488591698961;
0,00019183454320911;
0,000162179749001952;
0,000103286884358803;
5,11930831163843E-5;
2,5468855417958E-5;
2,00770126267453E-5;
1,47682027132202E-5;
-4,49796278570066E-6;
-3,37148946066734E-5;
-5,65695001372077E-5;
-6,12403423683588E-5;
-5,24898733887386E-5;
-4,78554222210552E-5;
-6,09368667016253E-5;
-8,6413320432141E-5;
-0,000100584490312775;
-7,85142331652192E-5;
-1,47851921923475E-5;
6,88427515444251E-5;
0,000135724199678673;
0,000157878590364725;
0,000133351974073962;
8,48969940606138E-5;
4,19913469825747E-5;
2,06134369620434E-5;
1,58240130347176E-5;
1,11134977423247E-5;
-4,94099105910536E-6;
-2,90663029741931E-5;
-4,80021622747551E-5;
-5,21615664181408E-5;
-4,54181709095711E-5;
-4,19781247783357E-5;
-5,28319925826083E-5;
-7,36642385817402E-5;
-8,53424316874415E-5;
-6,77825722384606E-5;
-1,66566330881489E-5;
5,05058290010594E-5;
0,000104262828180887;
0,000122186239082119;
0,000102741274704238;
6,41566164075523E-5;
2,99913269878164E-5;
1,29840532884513E-5;
9,18436536174831E-6;
5,45063956875688E-6;
-7,2847280274932E-6;
-2,64108109637385E-5;
-4,14156508220423E-5;
-4,47224956039979E-5;
-3,9406026477031E-5;
-3,66791086449742E-5;
-4,51894558086508E-5;
-6,15258178096813E-5;
-7,06568539235024E-5;
-5,68518695286326E-5;
-1,67585843078094E-5;
3,58872983070015E-5;
7,80995841011416E-5;
9,24233391790371E-5;
7,76981089221158E-5;
4,81029130134553E-5;
2,19019234724064E-5;
8,93736239146323E-6;
6,14343271264961E-6;
3,38799270941752E-6;
-6,29331918173435E-6;
-2,0881086886425E-5;
-3,23156323062649E-5;
-3,48124494371081E-5;
-3,07327688538713E-5;
-2,8621099461024E-5;
-3,50379886568185E-5;
-4,73776102733826E-5;
-5,42586628201063E-5;
-4,38224210806624E-5;
-1,35825135667797E-5;
2,60996563772621E-5;
5,79752988036531E-5;
6,90068144067945E-5;
5,83661047750242E-5;
3,66389405853781E-5;
1,73939069509667E-5;
7,90646154771147E-6;
5,8957100965438E-6;
3,89568562668778E-6;
-3,19583028259769E-6;
-1,38829305497867E-5;
-2,22747799900177E-5;
-2,41706653526516E-5;
-2,13003014714286E-5;
-1,98504225210844E-5;
-2,45386185033378E-5;
-3,34701173013293E-5;
-3,84834552982566E-5;
-3,11332714605716E-5;
-9,69503305799847E-6;
1,84437599316887E-5;
4,10871338997852E-5;
4,90855047773792E-5;
4,19030937863063E-5;
2,696627839435E-5;
1,37172947247684E-5;
7,17747127333771E-6;
5,75548334095575E-6;
4,32511630273191E-6;
-5,82871361473795E-7;
-7,93200925978447E-6;
-1,37321462510014E-5;
-1,51694700876155E-5;
-1,34204184044476E-5;
-1,26085184282353E-5;
-1,58399152800602E-5;
-2,18420412990841E-5;
-2,52670671172985E-5;
-2,0650302423599E-5;
-6,93152321673107E-6;
1,10969565705902E-5;
2,56454105119905E-5;
3,09526507589075E-5;
2,6737236252653E-5;
1,76747490014328E-5;
9,61692082597772E-6;
5,62483599703161E-6;
4,706547676113E-6;
3,76814851772783E-6;
7,57598502280565E-7;
-3,6880673517175E-6;
-7,22770047273456E-6;
-8,24982518262318E-6;
-7,45138397780063E-6;
-7,16936138788184E-6;
-9,11575191202139E-6;
-1,25569826977834E-5;
-1,45783322359909E-5;
-1,22906983270779E-5;
-5,20716082946546E-6;
4,12039435492253E-6;
1,17034245430661E-5;
1,47018991335909E-5;
1,30532789122954E-5;
9,0641939193605E-6;
5,4963344991055E-6;
3,72484541286574E-6;
3,2729287587147E-6;
2,79220972616694E-6;
1,44675481621418E-6;
-4,6980254303871E-7;
-2,03076032258468E-6;
-2,65505708562416E-6;
-2,62880794783953E-6;
-2,75983221488295E-6;
-3,56793799490647E-6;
-4,78100301876648E-6;
-5,56360495921837E-6;
-5,22583102571655E-6;
-3,76955272378984E-6;
-1,83552913201506E-6;
-1,72474925391478E-7;
8,67523699836091E-7;
1,40818573835872E-6;
1,7412728667747E-6;
2,00219486546124E-6;
2,13427281234818E-6;
2,09801562083621E-6;
2,02538232670664E-6;
2,11075002551106E-6;
2,3563703026385E-6;
2,49142756077853E-6;
2,22549290026141E-6;
1,61996969926359E-6;
1,15876414502685E-6;
1,32806667490508E-6;
2,0102601652322E-6;
2,28782458985413E-6;
9,98456424580307E-7;
-2,27060508538726E-6;
-6,55220428117443E-6;
-9,87190855951477E-6;
-1,04923683132775E-5;
-8,13350649074828E-6;
-4,19279393805201E-6;
-7,34810809593631E-7;
9,85439458197701E-7;
1,29433689946554E-6;
1,56084328804853E-6;
2,83927187943432E-6;
4,88829738358973E-6;
6,43855419052367E-6;
6,47381015176205E-6;
5,34500195449676E-6;
4,61034201645589E-6;
5,59164771768554E-6;
7,84725686692491E-6;
9,0052693585833E-6;
6,36843615197557E-6;
-8,15730329601176E-7;
-1,02492294276026E-5;
-1,77063607470482E-5;
-1,97241641810231E-5;
-1,58935138700625E-5;
-9,00409577483405E-6;
-2,93183117890536E-6;
8,27416578049302E-8;
6,66780561105155E-7;
1,20464217361685E-6;
3,45550051672624E-6;
6,9779715993179E-6;
9,68511078521202E-6;
9,96731162611133E-6;
8,41229789719784E-6;
7,45502922598203E-6;
9,09819848451224E-6;
1,2635734994198E-5;
1,45123016102391E-5;
1,07834702920577E-5;
4,2151244054362E-7;
-1,31959192375093E-5;
-2,40194817494481E-5;
-2,71901773317388E-5;
-2,21946352826853E-5;
-1,29460565387844E-5;
-4,78020139906258E-6;
-7,30788343539294E-7;
7,12647344040015E-8;
8,25489253538771E-7;
3,85587268947274E-6;
8,56025546663961E-6;
1,21973995907206E-5;
1,26837541877945E-5;
1,07962294941239E-5;
9,66843867086988E-6;
1,18445296857271E-5;
1,64077367776172E-5;
1,88631855759851E-5;
1,42782118538293E-5;
1,40783266582973E-6;
-1,55165226355594E-5;
-2,90062285931591E-5;
-3,31024046011304E-5;
-2,72097808099401E-5;
-1,61239564120443E-5;
-6,32520477250476E-6;
-1,46791486042943E-6;
-4,93836768283376E-7;
4,32342789101011E-7;
4,07400604446682E-6;
9,70340947464444E-6;
1,4071172725579E-5;
1,47266353805636E-5;
1,25933283376024E-5;
1,1344336166937E-5;
1,39406997875321E-5;
1,93029454315447E-5;
2,22144342777688E-5;
1,6985374650639E-5;
2,20528103467774E-6;
-1,72420287455565E-5;
-3,27712201869164E-5;
-3,75873954955583E-5;
-3,1033366113338E-5;
-1,85725812630146E-5;
-7,54931245008748E-6;
-2,08521713744562E-6;
-9,79727378384472E-7;
7,89115368890692E-8;
4,18212491284483E-6;
1,05078588649219E-5;
1,54282938290713E-5;
1,62204325496595E-5;
1,39167117398493E-5;
1,2588640845388E-5;
1,55038353642116E-5;
2,14626330908109E-5;
2,47193912629089E-5;
1,90316663092079E-5;
2,86927049528896E-6;
-1,84095392270386E-5;
-3,54253504230724E-5;
-4,07802994205437E-5;
-3,37729789257606E-5;
-2,03454970941293E-5;
-8,45882414290088E-6;
-2,56666415450568E-6;
-1,36736958865076E-6;
-2,13001057816164E-7;
4,21796006767717E-6;
1,10366814716323E-5;
1,63509591329626E-5;
1,72487701404319E-5;
1,48383354397862E-5;
1,34657628978433E-5;
1,66084523644922E-5;
2,29838610963212E-5;
2,64863708806574E-5;
2,05001172733157E-5;
3,41537611101488E-6;
-1,90909209190514E-5;
-3,71101135790765E-5;
-4,28452538199088E-5;
-3,55662875004289E-5;
-2,1528763085808E-5;
-9,09442795820305E-6;
-2,93101140710706E-6;
-1,67172023923485E-6;
-4,54678098282037E-7;
4,18638524143132E-6;
1,13198534958129E-5;
1,68884494313553E-5;
1,78636199206077E-5;
1,54005791079634E-5;
1,40124103179356E-5;
1,73022038476145E-5;
2,39369463753032E-5;
2,7597759177252E-5;
2,14508599672796E-5;
3,84185543015868E-6;
-1,9368587392004E-5;
-3,79719184044641E-5;
-4,39486408869214E-5;
-3,65536198163875E-5;
-2,22130975303491E-5;
-9,50307793208987E-6;
-3,20338497615898E-6;
-1,91306499282997E-6;
-6,61724021249254E-7;
4,08811991094308E-6;
1,13827534738953E-5;
1,70853414756297E-5;
1,81132049534507E-5;
1,56437921858559E-5;
1,4264653455225E-5;
1,76323369380942E-5;
2,43911855126558E-5;
2,81349753848844E-5;
2,19454010859725E-5;
4,15332819433204E-6;
-1,93123917372848E-5;
-3,81396679491491E-5;
-4,42375453151768E-5;
-3,68575092886264E-5;
-2,24746216294255E-5;
-9,71993136325759E-6;
-3,39838251053657E-6;
-2,10124300721188E-6;
-8,39395158484147E-7;
3,93324292116871E-6;
1,12584780484249E-5;
1,69926622663886E-5;
1,80520324224946E-5;
1,56152596794752E-5;
1,42658496608876E-5;
1,76525299965391E-5;
2,44206013964633E-5;
2,8183178666243E-5;
2,20503928825116E-5;
4,36373567433432E-6;
-1,89774018574877E-5;
-3,77232608378098E-5;
-4,38390398548206E-5;
-3,65828125126593E-5;
-2,23758244362304E-5;
-9,77011884990152E-6;
-3,52255008564061E-6;
-2,23876227691124E-6;
-9,86332500614119E-7;
3,73687462684959E-6;
1,09829777298507E-5;
1,66625129863445E-5;
1,77350857917894E-5;
1,5363013404032E-5;
1,40600941172076E-5;
1,74160276752017E-5;
2,40967862011464E-5;
2,78238668336267E-5;
2,18300637204025E-5;
4,48868237928509E-6;
-1,84115966945274E-5;
-3,68213165601935E-5;
-4,28679251067583E-5;
-3,58244601449453E-5;
-2,19733041724632E-5;
-9,67644084181036E-6;
-3,5820167800285E-6;
-2,32833898525997E-6;
-1,10197431726442E-6;
3,51190444283659E-6;
1,05879468418282E-5;
1,61411486148107E-5;
1,72111021442546E-5;
1,49293242713701E-5;
1,36859479130286E-5;
1,69696127056209E-5;
2,34831365222285E-5;
2,7129388074183E-5;
2,13410035551811E-5;
4,54047068924981E-6;
-1,76605781678818E-5;
-3,55255944435773E-5;
-4,14308383593684E-5;
-3,46712282073066E-5;
-2,13211964789801E-5;
-9,46246992050608E-6;
-3,58527423837678E-6;
-2,37537777650881E-6;
-1,18873945411331E-6;
3,26711203806081E-6;
1,00992360121711E-5;
1,54676762965481E-5;
1,65215327551041E-5;
1,4349902975478E-5;
1,31758823356918E-5;
1,63532922306543E-5;
2,26347859460975E-5;
2,61630947140356E-5;
2,0632480511769E-5;
4,52854930819725E-6;
-1,67670256835577E-5;
-3,3920356562845E-5;
-3,96254724938952E-5;
-3,32047636572231E-5;
-2,04699613861676E-5;
-9,15111904755173E-6;
-3,54160092345789E-6;
-2,38627893000279E-6;
-1,25023610186444E-6;
3,0090599115212E-6;
9,53886650998528E-6;
1,46761522163288E-5;
1,57026881883724E-5;
1,36560659311494E-5;
1,25584502680073E-5;
1,56025183986255E-5;
2,16008790661044E-5;
2,49816360746616E-5;
1,97486879295648E-5;
4,46159940086156E-6;
-1,57688157424596E-5;
-3,20806455687671E-5;
-3,7538902982566E-5;
-3,14978567392478E-5;
-1,94645916134032E-5;
-8,7627996372958E-6;
-3,45920495636261E-6;
-2,36663854554309E-6;
-1,28951827312374E-6;
2,74381264266339E-6;
8,92673269782241E-6;
1,37972670918455E-5;
1,47873460089468E-5;
1,28762301365994E-5;
1,1859692225366E-5;
1,474952261005E-5;
2,04258746139947E-5;
2,36362091459259E-5;
1,87298362820651E-5;
4,34838127943912E-6;
-1,46984638218457E-5;
-3,00719823246765E-5;
-3,52474284512482E-5;
-2,96142757682839E-5;
-1,83443472695256E-5;
-8,3150949050923E-6;
-3,34491398017102E-6;
-2,32098890340896E-6;
-1,30888410749645E-6;
2,47712093236912E-6;
8,28079659632521E-6;
1,28585198932963E-5;
1,38048783150881E-5;
1,20359550257876E-5;
1,11030918076304E-5;
1,38232657375202E-5;
1,91495213190519E-5;
2,21725210414366E-5;
1,76120084237378E-5;
4,19733962485487E-6;
-1,35838307316193E-5;
-2,79512906255293E-5;
-3,28175525124818E-5;
-2,76096798919202E-5;
-1,71435215062987E-5;
-7,82337853869222E-6;
-3,20473016640253E-6;
-2,25334957099827E-6;
-1,31041495433063E-6;
2,21392780967045E-6;
7,61667079701887E-6;
1,18838707451186E-5;
1,27809077198946E-5;
1,11575616869046E-5;
1,03091874906128E-5;
1,28490803418169E-5;
1,78065809555084E-5;
2,06305694282323E-5;
1,64268555213053E-5;
4,0160963007509E-6;
-1,24488898710486E-5;
-2,57678941223528E-5;
-3,03070396759859E-5;
-2,55325329558898E-5;
-1,58921337044418E-5;
-7,30132510691762E-6;
-3,04423544875988E-6;
-2,16759627584894E-6;
-1,29631234657497E-6;
1,9581140935727E-6;
6,94748847537293E-6;
1,0893702299928E-5;
1,17372913891836E-5;
1,02601075516297E-5;
9,49553769699834E-6;
1,18487038536648E-5;
1,64269713928643E-5;
1,90448286318511E-5;
1,52017246293797E-5;
3,81135341432252E-6;
-1,13141278669133E-5;
-2,35641191963126E-5;
-2,77655628308174E-5;
-2,34246301266814E-5;
-1,46162339010587E-5;
-6,76101434770152E-6;
-2,86858424738004E-6;
-2,06742038489269E-6;
-1,26882520398535E-6;
1,7126555997338E-6;
6,28415665161882E-6;
9,90515755885098E-6;
1,06924886598603E-5;
9,35970818097099E-6;
8,67703313816075E-6;
1,08406383970073E-5;
1,50362093894422E-5;
1,74447631090567E-5;
1,3960075697028E-5;
3,58905843767324E-6;
-1,0196689539109E-5;
-2,13757111232155E-5;
-2,52351906932996E-5;
-2,13214542098511E-5;
-1,33380469531876E-5;
-6,21288929491163E-6;
-2,68238080937837E-6;
-1,95618658394872E-6;
-1,23008577938696E-6;
1,47984075835036E-6;
5,63568375158863E-6;
8,93254096420054E-6;
9,66195916454051E-6;
8,46991146623493E-6;
7,86623589029085E-6;
9,84052133500149E-6;
1,36558758550005E-5;
1,58553170847671E-5;
1,2721875999907E-5;
3,35454433184308E-6;
-9,11058867940874E-6;
-1,92322936811511E-5;
-2,27509193914353E-5;
-1,92526068672053E-5;
-1,20761916944187E-5;
-5,66579434601523E-6;
-2,48962254018588E-6;
-1,83685986306478E-6;
-1,18203338963487E-6;
1,26141343159596E-6;
5,00941114872774E-6;
7,9876200023131E-6;
8,65847310257916E-6;
7,60194495617553E-6;
7,07360081502694E-6;
8,86139109303787E-6;
1,2303958858066E-5;
1,42973119172721E-5;
1,15038964405313E-5;
3,11255875291021E-6;
0,00932536704940314;
0,0226125718943246;
0,0163523959481674;
0,00941585383252411;
0,0121585457749464;
0,00702104020645663;
0,00563252336438057;
0,00458099799196055;
0,000839373641453183;
0,00103345097965813;
-0,00118602834336516;
-0,00198487281751318;
-0,00279944460270375;
-0,00454691641582046;
-0,00488101736219816;
-0,0058479868203023;
-0,00593022212298955;
-0,00616970054368788;
-0,00698325671717358;
-0,00791783629064291;
-0,0093559625886301;
-0,0102580604431793;
-0,010536528636817;
-0,0101238332759755;
-0,00921732458476497;
-0,00843489979044522;
-0,00783253195591786;
-0,0074590556038956;
-0,00704911825314015;
-0,00641780488224372;
-0,00567160831056543;
-0,00495227073563294;
-0,0044463098142527;
-0,00408480146829018;
-0,00365825078801015;
-0,00301956096665706;
-0,00221849139924486;
-0,0015614887670014;
-0,00135189530667996;
-0,00166262336094159;
-0,00223186528274346;
-0,00260035016148496;
-0,00242259468029231;
-0,00167065587960218;
-0,000633261721489639;
0,000312571365031841;
0,000961759284585573;
0,00137441383332905;
0,00176413262135059;
0,00227916442821208;
0,00287702694408872;
0,00338361222310646;
0,00367084461065012;
0,00378963607099256;
0,00392962871120587;
0,00423959370212913;
0,0046626540982065;
0,00493909488736826;
0,00479349231784789;
0,00416443637183661;
0,00329312676860614;
0,00258968624837239;
0,0023702829364831;
0,00265959765699879;
0,00320171380817488;
0,00366177849574423;
0,00385705300517632;
0,00384461803235478;
0,00381637474039393;
0,00390673841905581;
0,00407921192673686;
0,00417926351847279;
0,00409423701714643;
0,00387044092546649;
0,00367818014586249;
0,00365085553252997;
0,00373831497795871;
0,00370992711130436;
0,00332102058752742;
0,00251769940083765;
0,00151510446420223;
0,000678218802785463;
0,000288088745164757;
0,000366381229371263;
0,000685582375768206;
0,000948270250854403;
0,000992222655185214;
0,000867983138817765;
0,000745444977402698;
0,000743348901939712;
0,000828904973389049;
0,000864854992026448;
0,000751109402459319;
0,000528221070556896;
0,000346264320483119;
0,000322500159945476;
0,000411939015792126;
0,000410322459048899;
0,00010123182216622;
-0,000563264335178121;
-0,0107273354341867;
-0,0246993504126184;
-0,0187163993040997;
-0,011630970419264;
-0,0140027574241291;
-0,00853865855673814;
-0,00701327898253337;
-0,00597010036353386;
-0,00223112827787967;
-0,00231697922892651;
9,17209622301181E-5;
0,00103793009390181;
0,00186838201278418;
0,00353584023709027;
0,00382698859973862;
0,00489174641118435;
0,00517198215173325;
0,0055277985216933;
0,00618357353098128;
0,00664347097289358;
0,00745760412367462;
0,00787064552762312;
0,00801318363168378;
0,00783330269318052;
0,00734996753140842;
0,00694871689873666;
0,00655872625984191;
0,00626747263877348;
0,00594073339644247;
0,00548484549297545;
0,00498013044235207;
0,00446150194902539;
0,00403764148722786;
0,00367051645023064;
0,00326590257929076;
0,00276647730324156;
0,00218680156353226;
0,00167586313401446;
0,00137062327258228;
0,0013072516510526;
0,00136903519829962;
0,00134236238246388;
0,00107008445878672;
0,000537619364803865;
-0,000120202560700533;
-0,000726556172787683;
-0,00118538228059183;
-0,00152329535707563;
-0,00184089257492313;
-0,00220784793278555;
-0,00260407534302271;
-0,00294706808240603;
-0,00317533857599663;
-0,00331305452363938;
-0,00345084099665542;
-0,00366043334679837;
-0,00391499928532572;
-0,00408940380790216;
-0,00405022640952774;
-0,00376708761921312;
-0,00335691202728656;
-0,00301992163978372;
-0,00291158207751502;
-0,0030452271868422;
-0,00329606111478571;
-0,00349956457706501;
-0,00356555031976259;
-0,00352238803164206;
-0,00346579573324488;
-0,00346338053835907;
-0,00349758697025157;
-0,00349145394904658;
-0,00338858647533077;
-0,00321246876353399;
-0,00304949644770168;
-0,00296788935167054;
-0,00294287605213588;
-0,00285739929977524;
-0,00258643025132334;
-0,00210197852851874;
-0,00151424488058546;
-0,00101139332508609;
-0,000739337398919798;
-0,000710364262830559;
-0,000807238025309929;
-0,000875535886887585;
-0,000830583474509694;
-0,000698760864888223;
-0,000569372535898619;
-0,000505291910621382;
-0,000489628817037697;
-0,000449951547121629;
-0,000333094541817701;
-0,000160516997570744;
-1,23608044288175E-5;
4,83140429628447E-5;
4,52771782350102E-5;
8,83323935901075E-5;
0,000294600960973351;
0,000690673944296513;
0,00117442846129421;
0,00157128348154563;
0,00174616595688837;
0,00168843901676974;
0,00150789740854758;
0,00134877377315365;
0,00129034418034801;
0,00130866548655631;
0,00132139994676265;
0,00127080569267463;
0,0011731623751889;
0,00109620450324789;
0,00108971982758789;
0,00113429405236041;
0,00115617335340472;
0,00109747079784002;
0,000980674997366016;
0,000907796552737383;
0,000987478274118328;
0,00124456033415808;
0,00158492705710024;
0,00184762357700401;
0,00190830053302229;
0,00175752446212366;
0,00149692412820953;
0,00125975511709823;
0,00111925701788939;
0,00105348895237846;
0,000986737115138182;
0,000865978766328516;
0,000706327186065104;
0,00057018233945368;
0,000503360542000263;
0,000488014743018179;
0,000456377406154016;
0,000355300251014912;
0,000205449072622739;
0,000100419381524433;
0,000139781310794706;
0,000346156275955662;
0,000633104543951954;
0,000853020050517352;
0,000891946876754056;
0,000741222927651726;
0,000493815121941866;
0,000271526787217566;
0,000141168574839516;
8,24925273006181E-5;
2,6137321820289E-5;
-7,64769658037287E-5;
-0,000211690776752872;
-0,000322712558982199;
-0,000367934719582774;
-0,000363839113501468;
-0,00037239254561392;
-0,000442184246584785;
-0,000554532863377666;
-0,000624380625321184;
-0,000561311254833237;
-0,000344988938342013;
-5,42660030120529E-5;
0,000176481048836348;
0,000243573760456279;
0,000139062018318794;
-5,27251647356431E-5;
-0,000221356584689097;
-0,000306376228371756;
-0,000326315664650111;
-0,00034419938482208;
-0,00040416096819522;
-0,00049392071072128;
-0,000562157222768965;
-0,000571330825309096;
-0,000536476700671702;
-0,00051373825306577;
-0,000547109083088939;
-0,000619756053850959;
-0,000654906576489332;
-0,000571013715512071;
-0,000349841669682264;
-6,26417654796265E-5;
0,000169334734785767;
0,000252617123024571;
0,000180071640075636;
2,76862014928408E-5;
-0,000105109773691834;
-0,000163934870441914;
-0,000165495643262265;
-0,000166482211301585;
-0,000206552157682408;
-0,000274644253450174;
-0,000324644423259751;
-0,000322847537703004;
-0,000282748853906469;
-0,000254697687417247;
-0,000278101569238342;
-0,000337818195248649;
-0,000365022114545435;
-0,000286672068640231;
-8,64580759190671E-5;
0,0095052859391756;
0,0230095588526609;
0,0168267099169987;
0,0098210990887474;
0,0124192829535444;
0,0071546503667356;
0,00570716769246122;
0,00464932483058284;
0,000901260425154958;
0,00105188872303746;
-0,00123769393089597;
-0,00209031850783918;
-0,00291093219143314;
-0,00462920439102437;
-0,00494562007137284;
-0,00594299091574649;
-0,00608960217355393;
-0,0063634763557652;
-0,00711359919570444;
-0,00787172017399215;
-0,00907943486690751;
-0,00979763077557532;
-0,0100160570070959;
-0,00967300333300613;
-0,00890291081439065;
-0,00824146510267946;
-0,00769968830213071;
-0,00734012490309555;
-0,00694405425462099;
-0,00635912121031102;
-0,00568263453392162;
-0,00501836751407753;
-0,00452510680827428;
-0,00414494957496136;
-0,00370961311821493;
-0,00310420474244469;
-0,0023660234255413;
-0,00174519235157079;
-0,00148535575472344;
-0,00164608966550169;
-0,00201755155825969;
-0,00222876212113353;
-0,00200215968515291;
-0,00131488117670643;
-0,000400426229335278;
0,000436298568991144;
0,00102960060667399;
0,00142756040298906;
0,00180292830777664;
0,00227545682547109;
0,00281070653628135;
0,0032677697154264;
0,00354279162742754;
0,00367703341365099;
0,00382413785001783;
0,00410477095237292;
0,00447293112587296;
0,00471800413070579;
0,00461656034069991;
0,00411876077766448;
0,00342052586601772;
0,0028551363001083;
0,00267969720783943;
0,00291448972400952;
0,00335158332741948;
0,00371872481981579;
0,00386733482575164;
0,00384403487241539;
0,00380530535569043;
0,00386087298625096;
0,00398120680444777;
0,00404049963720273;
0,00394702555289698;
0,00373872791858068;
0,00355479604435295;
0,00350436309296126;
0,00354666878736567;
0,00349342841774999;
0,00314476775578109;
0,00245672181196814;
0,00160540894283634;
0,000889670417846542;
0,000539763226030861;
0,000573591587775279;
0,000804876158011787;
0,000989934816607508;
0,000995838485032157;
0,000864147010852421;
0,000734395839586423;
0,000704189583616186;
0,000746710516625976;
0,000749271539227198;
0,00062966498352018;
0,000421284898310077;
0,00024763705651434;
0,000205286631392437;
0,000257266713243125;
0,000235408099761552;
-3,85739259514727E-5;
-0,000604186811124842;
-0,0106388116218886;
-0,0245070371066308;
-0,0184890749370243;
-0,0114405817043458;
-0,0138862577678753;
-0,00848744822461507;
-0,00699395494855471;
-0,00595687109294702;
-0,00222387612115542;
-0,00233343702168117;
3,88799833552662E-5;
0,000956777162560065;
0,00178206526886352;
0,00346146745318617;
0,00375929422322475;
0,0048080625409419;
0,00505640520537282;
0,00539475771750053;
0,00607950625910966;
0,00662185847950828;
0,00754406344623634;
0,00804369488184155;
0,00821526359159058;
0,00800423030155189;
0,00745882360784084;
0,00700262447348426;
0,00658549528657733;
0,0062885608999525;
0,00595621731258197;
0,00547995956341652;
0,00494433137265329;
0,00440148712097348;
0,00397261837542939;
0,00361467487808086;
0,00321489338788386;
0,00270155643354273;
0,00209483669027512;
0,00156879571459974;
0,00128681026374326;
0,00129083465111392;
0,00144116885670411;
0,00148541688933967;
0,00123676878487317;
0,000678511016546781;
-3,04837600225776E-5;
-0,000682188060554001;
-0,00116360324807918;
-0,00150655243946718;
-0,00182911409318692;
-0,00221307332583373;
-0,00263488619810551;
-0,00299799009225366;
-0,00323071945541902;
-0,00336133341580906;
-0,00349552045032993;
-0,0037166871701829;
-0,00399343759729361;
-0,00418033016225071;
-0,00412259506920828;
-0,00378520859083891;
-0,00330366941706;
-0,00290946489813083;
-0,0027819228677261;
-0,00293606678037966;
-0,00322777809379515;
-0,00346751352092782;
-0,00355153007629438;
-0,00351237520455042;
-0,00345973200794193;
-0,00347085865130908;
-0,00352543258516672;
-0,00353530712809364;
-0,00343600986438536;
-0,00325428297793831;
-0,00308845895425608;
-0,00301598047202135;
-0,00300845604482515;
-0,00293280680854432;
-0,0026472054092269;
-0,00212004026746031;
-0,00147612445781161;
-0,000928140897492411;
-0,000640665013222561;
-0,000627278014081027;
-0,000755650604292601;
-0,000851869468729179;
-0,000820733252840711;
-0,00069187664772213;
-0,000565423723668995;
-0,00051169955242697;
-0,000511664568025735;
-0,000484265592639354;
-0,000370134732901873;
-0,000193244186863871;
-4,28823045199957E-5;
1,08519001109445E-5;
-5,49324587918066E-6;
3,00893915723697E-5;
0,000247466866429183;
0,000675942057613404;
0,00120230729842411;
0,00163346553587751;
0,00182030676871625;
0,00175125214473551;
0,00154743297800874;
0,00136765936907531;
0,00129904693288891;
0,00131521777295344;
0,00132580451618868;
0,00126756333215776;
0,00115837597598435;
0,00107232782505812;
0,00106374977929271;
0,00111137463199249;
0,00113477073436137;
0,00107094294582775;
0,000944414922170202;
0,000866028045088242;
0,000953593398888573;
0,00123386145213432;
0,00160474438057606;
0,00189206468076106;
0,00196151230985693;
0,0018030223081317;
0,0015262528315353;
0,00127471394880532;
0,00112712147627334;
0,00105982083087705;
0,00099152010757393;
0,000865406645735916;
0,000697714952092281;
0,000555203340552749;
0,000486776302682302;
0,000473312850189543;
0,000442530731880168;
0,000337864096302125;
0,000181362280661531;
7,25004131111585E-5;
0,000116888340048274;
0,000338357539494919;
0,000645215889529788;
0,000881257171680883;
0,00092612253127547;
0,000770789343543872;
0,000513370717760871;
0,000282157616050926;
0,000147378685192978;
8,76997454292812E-5;
3,03137726412135E-5;
-7,56610436951386E-5;
-0,000215862520258504;
-0,000330871972038666;
-0,000377256922261356;
-0,000372270758145213;
-0,00038051917437608;
-0,000452544010118494;
-0,000568845492061203;
-0,000641042162741831;
-0,000575385760251463;
-0,000350935987344252;
-4,94462192276869E-5;
0,000190100809543838;
0,000260695945383344;
0,000154262553269609;
-4,22107136720496E-5;
-0,000215051865844482;
-0,000302160048570167;
-0,00032261302368571;
-0,000341046586873399;
-0,000402617192638359;
-0,000494702891608064;
-0,000564842565484473;
-0,000574756199885637;
-0,000539819432696323;
-0,000517206285585264;
-0,000551608017515153;
-0,00062585760802459;
-0,000662046818628166;
-0,000577612971666237;
-0,000354233336545051;
-6,40512908767886E-5;
0,000170485777737765;
0,000255198018857758;
0,000183025051276636;
3,04960414066869E-5;
-0,000102483273114596;
-0,000161395373136654;
-0,00016303390441009;
-0,000164141763423429;
-0,000204313726591179;
-0,00027245262500794;
-0,000322566317372965;
-0,00032112845972103;
-0,00028160953536022;
-0,000254028305805954;
-0,00027742883234713;
-0,000336744877065688;
-0,000363863658277013;
-0,000286683121419108;
-8,92426565250154E-5;
0,000165491153320013;
0,000370765546356656;
0,000444577188893172;
0,000380888192837152;
0,000246431691522398;
0,000128209045550748;
7,36628840906997E-5;
6,82119328352547E-5;
6,25931839387573E-5;
2,24867535103562E-5;
-4,24052170340331E-5;
-9,21328976097888E-5;
-9,75997433042191E-5;
-7,04565162847955E-5;
-5,39837868023484E-5;
-8,19134734217062E-5;
-0,000141139611597991;
-0,000172720942539268;
-0,000114343806525266;
4,77522172517168E-5;
0,000259196780118423;
0,000427917467491788;
0,000483283341236001;
0,000420189547083056;
0,00029619154699918;
0,000186216794802974;
0,000131084768070582;
0,000118260403872609;
0,000105435269721505;
6,31795389034888E-5;
-1,36585657190956E-7;
-5,02241192503691E-5;
-6,21415318093991E-5;
-4,58750515961144E-5;
-3,84675670681043E-5;
-6,87465953811764E-5;
-0,000125467694073357;
-0,000158250559378629;
-0,000113907284033342;
1,92511245364628E-5;
0,000194805242276297;
0,000334270684454288;
0,000377524352803848;
0,000320282563735302;
0,000211552807727649;
0,000115040178348073;
6,5399125105168E-5;
5,19591153692923E-5;
3,88160463082492E-5;
1,03037733229988E-6;
-5,42917580402429E-5;
-9,81229182191548E-5;
-0,000109386178624056;
-9,65546233728249E-5;
-9,09376377494609E-5;
-0,000116863261434858;
-0,000164829729964454;
-0,000192372069996941;
-0,000154729550470948;
-4,21336254667515E-5;
0,000106306977880298;
0,000224601933950974;
0,000262279056371038;
0,000215790387896802;
0,000126266906446311;
4,70874323334897E-5;
7,23524958889791E-6;
-2,25302583057078E-6;
-1,14080524637727E-5;
-4,10557159750021E-5;
-8,52556002294693E-5;
-0,000119808217488798;
-0,000127179164097811;
-0,000114453944367016;
-0,000107690283176752;
-0,000127097633050884;
-0,000164769374850198;
-0,000185478762898755;
-0,000152164251992475;
-5,68029287172062E-5;
6,81858528897653E-5;
0,000168229665219369;
0,000201670529893743;
0,000165633759415275;
9,40685504081366E-5;
3,0944400130353E-5;
8,51441605842778E-8;
-5,90651576226555E-6;
-1,17024391586559E-5;
-3,43755833506683E-5;
-6,9038870453949E-5;
-9,58758214143958E-5;
-0,000100562599295592;
-8,89121168329316E-5;
-8,2200267465096E-5;
-9,68875567064921E-5;
-0,000126508068775232;
-0,000142395058436488;
-0,000114459856786353;
-3,62490466150252E-5;
6,58944607683906E-5;
0,000147753767432364;
0,00017566052375178;
0,000147354026211169;
9,0288933163852E-5;
3,99298016713366E-5;
1,54437369896477E-5;
1,08578405564462E-5;
6,34933077442952E-6;
-1,17598677349632E-5;
-3,95289942620906E-5;
-6,10916372994436E-5;
-6,50137314444278E-5;
-5,59541984206626E-5;
-5,08737482619609E-5;
-6,28519927120702E-5;
-8,67183218026458E-5;
-9,97085948691183E-5;
-7,80039673652955E-5;
-1,6556494871146E-5;
6,37602481621054E-5;
0,000128039887587854;
0,000149792228231861;
0,00012730641581021;
8,22059337023702E-5;
4,23242347623778E-5;
2,26533646730946E-5;
1,84990616520639E-5;
1,43843938780967E-5;
-3,28845704385984E-7;
-2,2549042260015E-5;
-3,9946418525543E-5;
-4,36724390553306E-5;
-3,73539705463697E-5;
-3,4095286206588E-5;
-4,3957505908918E-5;
-6,29301248769616E-5;
-7,35211604539306E-5;
-5,75076259692851E-5;
-1,10945599821588E-5;
4,9721701573795E-5;
9,83316335410091E-5;
0,000114636385237468;
9,7409950369315E-5;
6,30810231407748E-5;
3,26905543598866E-5;
1,75158853792954E-5;
1,39978513107902E-5;
1,05185912662311E-5;
-8,63721234770483E-7;
-1,78150667653224E-5;
-3,11469601663947E-5;
-3,43060813291803E-5;
-3,00057816234268E-5;
-2,79348999026751E-5;
-3,54839899308563E-5;
-4,96733945361421E-5;
-5,76799090099756E-5;
-4,62318959804586E-5;
-1,26420965040826E-5;
3,14040027082058E-5;
6,6625392699416E-5;
7,85640990050626E-5;
6,64183998479994E-5;
4,20309538667709E-5;
2,04512717172916E-5;
9,68188996371101E-6;
7,16305286834756E-6;
4,67373790678087E-6;
-3,35677011009257E-6;
-1,5263088709935E-5;
-2,4620275612386E-5;
-2,68926216445967E-5;
-2,39909482861588E-5;
-2,26056528505496E-5;
-2,77849081673771E-5;
-3,74550660016114E-5;
-4,28874372841567E-5;
-3,51490676453873E-5;
-1,25212691428158E-5;
1,70864229046398E-5;
4,08066927766577E-5;
4,91145743704625E-5;
4,15777616084566E-5;
2,6030678526428E-5;
1,22903325839967E-5;
5,50160829927566E-6;
3,97762745844919E-6;
2,45965480224651E-6;
-2,55696877204878E-6;
-9,98985842484975E-6;
-1,58200278811451E-5;
-1,72665187950684E-5;
-1,55408899479938E-5;
-1,47262994419305E-5;
-1,7835920684628E-5;
-2,35833482458265E-5;
-2,67934540909666E-5;
-2,2295486795679E-5;
-9,20809690334286E-6;
7,83350601392318E-6;
2,15179434166952E-5;
2,65902098027412E-5;
2,29369950587457E-5;
1,49268562262528E-5;
7,85582897894446E-6;
4,40210013462304E-6;
3,63344677077935E-6;
2,84711396504851E-6;
3,19559743414591E-7;
-3,3694781411884E-6;
-6,27267978603642E-6;
-7,11833846322831E-6;
-6,5153062697011E-6;
-6,30468126372854E-6;
-7,75138385539941E-6;
-1,02455116521486E-5;
-1,16614144324824E-5;
-1,00538056131885E-5;
-5,25701562762563E-6;
9,00492450217968E-7;
5,86463128882683E-6;
8,03335339251795E-6;
7,56530409903758E-6;
5,86704629393597E-6;
4,37430431777356E-6;
3,66107658748271E-6;
3,43946509503016E-6;
3,18516816710229E-6;
2,69103809006847E-6;
2,10826232354796E-6;
1,62182389270791E-6;
1,22102271524015E-6;
8,09691990849088E-7;
4,50195855969962E-7;
3,60083080860823E-7;
5,74787386851153E-7;
6,36081715879952E-7;
-2,40758438919373E-7;
-2,49405975822804E-6;
-5,57801729066408E-6;
-8,02720482042333E-6;
-8,36042506350791E-6;
-6,1907476938928E-6;
-2,60933119217131E-6;
5,6773445917211E-7;
2,14376561944246E-6;
2,37314121190221E-6;
2,56213290620134E-6;
3,77612921792332E-6;
5,8056901321864E-6;
7,35761192792115E-6;
7,3469450711928E-6;
6,10717027090964E-6;
5,29291241190975E-6;
6,36004789861134E-6;
8,86306596917548E-6;
1,01868074180188E-5;
7,27059833914337E-6;
-8,25809051719181E-7;
-1,15788395108184E-5;
-2,01793957425567E-5;
-2,25846249823548E-5;
-1,82192427589156E-5;
-1,02474222906516E-5;
-3,18070752862144E-6;
3,18294113385941E-7;
9,52959165411999E-7;
1,54243978308893E-6;
4,20213388069383E-6;
8,42407006247295E-6;
1,16961212237442E-5;
1,20489339379527E-5;
1,01699772740357E-5;
9,02265301250675E-6;
1,10789537649888E-5;
1,54977477785196E-5;
1,78956261053218E-5;
1,33490972245062E-5;
5,08829857476657E-7;
-1,64842197719067E-5;
-3,00912768255509E-5;
-3,41814198963221E-5;
-2,80270888503526E-5;
-1,64798741074956E-5;
-6,24194074823559E-6;
-1,16535911752633E-6;
-1,82188121410423E-7;
7,51914777473863E-7;
4,60101460681575E-6;
1,06150267599417E-5;
1,52976970425359E-5;
1,59671099732097E-5;
1,35964020041082E-5;
1,22016527091665E-5;
1,50703602819504E-5;
2,10430167698507E-5;
2,43190278707736E-5;
1,84850105913284E-5;
1,86635121902179E-6;
0,00931333050151772;
0,0225920202287494;
0,016329577852285;
0,00939749060493593;
0,0121481519513168;
0,00701766666953156;
0,00563263627525569;
0,00458178629180502;
0,000840781776179939;
0,00103745982840716;
-0,00117794738498677;
-0,00197366655331019;
-0,00278792774519013;
-0,00453722241305711;
-0,00487245056096189;
-0,00583752163660523;
-0,00591565307909022;
-0,00615296188545838;
-0,00697088033633338;
-0,00791755461763311;
-0,00937156853852381;
-0,0102862841240934;
-0,0105684224442496;
-0,010149848217512;
-0,00923248819580962;
-0,0084404845254791;
-0,0078333635323613;
-0,00745894222492104;
-0,00704811764352668;
-0,00641324848987257;
-0,00566153308861451;
-0,00493793092933764;
-0,00443140683924691;
-0,0040721247489254;
-0,00364690708597805;
-0,00300566512125929;
-0,0021992354662348;
-0,00153935302000005;
-0,00133516658301882;
-0,00166105588034283;
-0,00225023060758118;
-0,00263459675319022;
-0,0024616469160474;
-0,00170273515145375;
-0,000652244579798222;
0,000305163109826386;
0,000960090511789739;
0,00137389801826815;
0,00176471199195406;
0,00228404577830216;
0,00288855803236156;
0,00340030104670836;
0,0036883018913514;
0,0038045638640119;
0,00394307292895861;
0,00425610358974679;
0,00468550253551693;
0,00496538126389009;
0,00481357999527019;
0,00416701720390706;
0,00327267507976111;
0,00255084563176811;
0,00232574830516328;
0,00262284415554557;
0,00317974202904129;
0,00365288252622765;
0,00385463909930991;
0,00384351553685593;
0,00381652737716156;
0,00391175809281015;
0,00409173574986044;
0,00419762321512649;
0,0041135315827498;
0,00388699444959781;
0,00369315117806714;
0,00366928388678382;
0,00376381632458552;
0,00373929153134563;
0,00334362010895829;
0,002521085963006;
0,00149319710572669;
0,000636085847757477;
0,000239594983729952;
0,00032622731998497;
0,000661403802198677;
0,000938233943943646;
0,000989196847527076;
0,000866383809576313;
0,000745218389736803;
0,000748394544177899;
0,000842065069287203;
0,000884338790977736;
0,000771658838416749;
0,000545896881039559;
0,00036230241674608;
0,000342278431061328;
0,000439308553123263;
0,000441861312074042;
0,000125635044783082;
-0,00055922159812016;
-0,0107501148188425;
-0,024743604936921;
-0,0187674873798318;
-0,0116733779692877;
-0,0140284262069771;
-0,0085494994671833;
-0,00701676949124949;
-0,00597208900867583;
-0,00223166545946492;
-0,00231198046806865;
0,000105229449607962;
0,00105808183619847;
0,0018896965034265;
0,0035542146396006;
0,00384370557359382;
0,00491238938647927;
0,00520054434161899;
0,00556073044931005;
0,00620916631467253;
0,00664803837898251;
0,00743445580493298;
0,00782528109497845;
0,00796068136463958;
0,00778963339367169;
0,00732342844313088;
0,0069373616360429;
0,00655489759376312;
0,00626518595169102;
0,00593994227528032;
0,0054897308686436;
0,00499373418397969;
0,00448192209947297;
0,00405929104451035;
0,00368921496496506;
0,00328295322989387;
0,0027875551839216;
0,00221596186102901;
0,00170950145702434;
0,00139686132012348;
0,00131221274816771;
0,00134593111087859;
0,00129673793191846;
0,00101716377128021;
0,000493524799783445;
-0,000147092118301162;
-0,000738186758007329;
-0,00118944943914801;
-0,00152581032022237;
-0,0018418972802927;
-0,00220314052461242;
-0,00259060002676554;
-0,00292672814393597;
-0,00315372892039089;
-0,00329436010143134;
-0,00343376033304183;
-0,00363929634168215;
-0,00388575680508441;
-0,00405565360401388;
-0,0040238173710656;
-0,00376185711707959;
-0,00337963499169713;
-0,00306509836831542;
-0,00296408804078774;
-0,00308904613818332;
-0,00332286557065404;
-0,00351127038179348;
-0,003569772497753;
-0,00352507247540999;
-0,00346697960450285;
-0,00345890464159804;
-0,0034844272092219;
-0,00347148640603357;
-0,00336733135121787;
-0,00319405425461318;
-0,0030326413714728;
-0,00294700948148377;
-0,00291398523838883;
-0,00282403727102026;
-0,0025602504317578;
-0,00209658707936878;
-0,00153631030006227;
-0,00105553576820687;
-0,000790735845489149;
-0,000753322780101259;
-0,000833591303439958;
-0,000887145215864419;
-0,000834885179609693;
-0,00070155954447994;
-0,00057070044678291;
-0,000501085196840778;
-0,000476932905955688;
-0,000430591915087971;
-0,000312448667092259;
-0,000142605871861786;
4,06119323555989E-6;
6,86787578877243E-5;
7,34609580086129E-5;
0,00012089565638754;
0,000320221963895489;
0,000696135198292803;
0,00115324456138236;
0,00152865381126996;
0,00169644183478253;
0,00164682135952857;
0,00148229882911934;
0,00133740698194215;
0,00128603103573156;
0,00130580415175928;
0,00131996306586791;
0,00127471900190908;
0,00118528019196728;
0,00111477075372339;
0,00110955459083547;
0,00115152421619247;
0,00117199670976101;
0,00111711332190335;
0,00100786557822557;
0,000939229526342639;
0,00101227286223224;
0,0012500140852427;
0,00156479942660965;
0,00180688560094873;
0,00186070163614182;
0,00171763143470478;
0,0014723246447106;
0,00124875094989162;
0,00111499089905111;
0,00105061028057917;
0,000985223327584389;
0,000869583628130366;
0,000717780414665829;
0,000587811922335853;
0,00052222713944981;
0,000504425045982466;
0,000471471815104749;
0,000374057045218221;
0,000231420240058813;
0,000130459486647795;
0,000163535694729278;
0,000351536019703538;
0,000614162380990987;
0,000814462115531837;
0,000846818863088845;
0,000703350218308417;
0,000470404563558053;
0,000260980388194993;
0,000136997681736103;
7,96346677548044E-5;
2,4574537401784E-5;
-7,31887800597283E-5;
-0,000200965141431251;
-0,000306126425669126;
-0,000350154339783485;
-0,000348353864944824;
-0,000358126590092481;
-0,000424438444754622;
-0,000529954263529083;
-0,000595934762490139;
-0,000538762940753964;
-0,00033973982349367;
-7,19335630664218E-5;
0,000140311496292723;
0,000201169232068088;
0,000103427383020754;
-7,48052796518725E-5;
-0,000231372156470192;
-0,000310412765484888;
-0,000329120846801885;
-0,000345786821108005;
-0,000401191497066434;
-0,000483964685293686;
-0,000546688758916181;
-0,000554719857655073;
-0,000521991423071299;
-0,000500372448146353;
-0,000530465066982634;
-0,000596695609174823;
-0,000628201502090547;
-0,000549794122976867;
-0,000344770009439581;
-7,89797063609771E-5;
0,000135692613350541;
0,000213107790637069;
0,0001468250900722;
7,03619052280872E-6;
-0,000114540393302878;
-0,000167805481671514;
-0,000168221422827136;
-0,000168072721982426;
-0,000203897664825833;
-0,000265481126597502;
-0,000310338979945497;
-0,000307458253930844;
-0,000269311505014964;
-0,000242278904418296;
-0,000262619456991647;
-0,000316359361407981;
-0,000340155875646683;
-0,000266865422749827;
-8,16013536556145E-5;
0,000156869657894506;
0,00034879374895895;
0,000417460351648188;
0,000357235853921376;
0,000230734667785578;
0,000119675051327543;
6,86708169072625E-5;
6,39905778766949E-5;
5,91858178858853E-5;
2,18444679668523E-5;
-3,88913997379852E-5;
-8,52438775696993E-5;
-8,96532349792388E-5;
-6,31582988679428E-5;
-4,68486729583421E-5;
-7,28035387067886E-5;
-0,000128574623579136;
-0,000158016618231482;
-0,000101679631899054;
5,35960551680793E-5;
0,000255828087746713;
0,000416857806857414;
0,000468968945526618;
0,000407273148779845;
0,00028712284964663;
0,000180669548754949;
0,000127275833774463;
0,000114841825295858;
0,000102456985229204;
6,16099499477297E-5;
3,88215929526603E-7;
-4,794126229327E-5;
-5,91336851765098E-5;
-4,28949315581427E-5;
-3,53204062646109E-5;
-6,45570410517186E-5;
-0,000119645012492693;
-0,000151306791089815;
-0,000107422352601626;
2,3502783132093E-5;
0,000195886784627194;
0,000332519649274424;
0,000374158822395941;
0,000316575132793239;
0,000208207310726273;
0,000112123091227091;
6,2690031476069E-5;
4,93199638944781E-5;
3,63008864192883E-5;
-1,22991627731926E-6;
-5,62129953625888E-5;
-9,96655069741138E-5;
-0,000110493531078678;
-9,71710075857992E-5;
-9,1114421414831E-5;
-0,000116795225605531;
-0,000164680196489784;
-0,000191973584880526;
-0,000153462726532392;
-3,92293612258182E-5;
0,000111146343099247;
0,000230720415215779;
0,000268184443491142;
0,000219906902238361;
0,000127825064848985;
4,64795633975703E-5;
5,55082402114456E-6;
-4,13806132453995E-6;
-1,3437522490359E-5;
-4,38024285560991E-5;
-8,91410395789723E-5;
-0,000124479540020714;
-0,000131668887145777;
-0,000118030400161431;
-0,000110610100659396;
-0,000130448913870578;
-0,000169344973175317;
-0,000190545267297889;
-0,000155269582399756;
-5,50579149643233E-5;
7,61108964018302E-5;
0,000180859310614856;
0,00021526683785614;
0,000176259162593929;
9,97299398198732E-5;
3,22994725205762E-5;
-6,97120077395479E-7;
-7,11462816881795E-6;
-1,32796011145588E-5;
-3,74758873812833E-5;
-7,45017634103442E-5;
-0,00010309203126807;
-0,000107816411589526;
-9,49164845403423E-5;
-8,73797621615373E-5;
-0,000103062551501344;
-0,000134987482796464;
-0,000151982634615286;
-0,000121204140823412;
-3,55258872081367E-5;
7,62623952948199E-5;
0,000165629218944641;
0,000195481242496929;
0,000163262191463245;
9,92946030454184E-5;
4,29016471879619E-5;
1,54218319619643E-5;
1,02277796915748E-5;
5,16728624588348E-6;
-1,51183869212494E-5;
-4,62419139399849E-5;
-7,03445362560367E-5;
-7,44896578186829E-5;
-6,39197033799079E-5;
-5,78877141894896E-5;
-7,13216734158732E-5;
-9,83662768324881E-5;
-0,00011296877988283;
-8,77263186138078E-5;
-1,67294284596201E-5;
7,59949780097789E-5;
0,00015002458181453;
0,000174519391541848;
0,000147395317557998;
9,38740440933445E-5;
4,66026053514866E-5;
2,32660747549559E-5;
1,83608708154199E-5;
1,35497655803884E-5;
-3,85522858615686E-6;
-3,02122030813296E-5;
-5,07727162057757E-5;
-5,48754895767211E-5;
-4,68516777344423E-5;
-4,25508118324403E-5;
-5,4234856583027E-5;
-7,70738277741945E-5;
-8,96786698497995E-5;
-6,95994613649434E-5;
-1,20328353951547E-5;
6,33265694541038E-5;
0,000123427240497228;
0,00014310810997474;
0,000120708758259732;
7,68142540925051E-5;
3,80086306878702E-5;
1,86603964241095E-5;
1,42837307610703E-5;
9,99767739067695E-6;
-4,46886290738583E-6;
-2,61529360415896E-5;
-4,31254554732365E-5;
-4,6786523918517E-5;
-4,06443288930218E-5;
-3,74723786524853E-5;
-4,71256282734719E-5;
-6,57042764154551E-5;
-7,60348571142618E-5;
-6,01408400422766E-5;
-1,42169575572588E-5;
4,59511163743652E-5;
9,39582133881957E-5;
0,000109759874649165;
9,2073542926916E-5;
5,73042992081854E-5;
2,65749746505032E-5;
1,12682515146789E-5;
7,81344897809137E-6;
4,4366851635912E-6;
-6,96245793030013E-6;
-2,40331424451411E-5;
-3,73799144096205E-5;
-4,02539959617223E-5;
-3,54249943793838E-5;
-3,29074490901516E-5;
-4,0399231234217E-5;
-5,48358904827361E-5;
-6,28218300683257E-5;
-5,0386293526298E-5;
-1,46158437667042E-5;
3,22034625765691E-5;
6,96119938227775E-5;
8,21391759946726E-5;
6,88385659230039E-5;
4,23798948746024E-5;
1,90092647575968E-5;
7,44511232687504E-6;
4,93422039667319E-6;
2,47403279374716E-6;
-6,10114021801762E-6;
-1,89862707430098E-5;
-2,90423203832733E-5;
-3,11675661913063E-5;
-2,74731321864008E-5;
-2,55186756229503E-5;
-3,10841518885819E-5;
-4,18478169997217E-5;
-4,77698827493454E-5;
-3,84351737980688E-5;
-1,17195476361594E-5;
2,31979738231817E-5;
5,11314816791263E-5;
6,06647454744281E-5;
5,1148561512512E-5;
3,19443324508395E-5;
1,49817904836218E-5;
6,6232418684787E-6;
4,83964092405309E-6;
3,07890628163651E-6;
-3,11512074953534E-6;
-1,24195693349925E-5;
-1,96869740349832E-5;
-2,1267973528895E-5;
-1,86917904331024E-5;
-1,73532566831569E-5;
-2,13423495116187E-5;
-2,89917796797867E-5;
-3,32158862763046E-5;
-2,67270964761911E-5;
-8,0936937060084E-6;
1,62384038164575E-5;
3,571810806317E-5;
4,24898484113129E-5;
3,61646934705982E-5;
2,32008215240494E-5;
1,1742764886161E-5;
6,08824354714554E-6;
4,84332588590188E-6;
3,60191850574352E-6;
-5,96274748057617E-7;
-6,85070202200406E-6;
-1,17554284285136E-5;
-1,292999074882E-5;
-1,13947457372755E-5;
-1,06542885840977E-5;
-1,33243061219863E-5;
-1,83090564542543E-5;
-2,10985168034283E-5;
-1,7129782706956E-5;
-5,57304372692232E-6;
9,50581334637391E-6;
2,1588243818059E-5;
2,59142660813243E-5;
2,23202520592735E-5;
1,47419730782567E-5;
8,03778436627867E-6;
4,71431824432261E-6;
3,92861700621903E-6;
3,13428993867773E-6;
6,66103011473642E-7;
-2,94181098193323E-6;
-5,79084259030224E-6;
-6,59778413903792E-6;
-5,94291560679803E-6;
-5,69803206745993E-6;
-7,20659537568538E-6;
-9,86691761102317E-6;
-1,13907242392657E-5;
-9,56330141151554E-6;
-4,07249233146416E-6;
3,06568371119385E-6;
8,80263689697144E-6;
1,10398741114105E-5;
9,80656277698526E-6;
6,87133738831773E-6;
4,27161432179044E-6;
2,97773974747367E-6;
2,61927022542739E-6;
2,24295142942579E-6;
1,29180608566875E-6;
-1,43175014511322E-8;
-1,06625151105128E-6;
-1,51847233316161E-6;
-1,57508995301277E-6;
-1,71415274325282E-6;
-2,19435688217821E-6;
-2,83596249965888E-6;
-3,24398816518512E-6;
-3,20273475850075E-6;
-2,83963645569059E-6;
-2,42679676039701E-6;
-2,06385861627959E-6;
-1,58954573026658E-6;
-8,1172312233228E-7;
2,00008970747923E-7;
1,09251387963681E-6;
1,53547396472115E-6;
1,55856227145397E-6;
1,55560195849063E-6;
1,90559518973988E-6;
2,56242681261111E-6;
3,04698828760378E-6;
2,91437483835615E-6;
2,27782938249957E-6;
1,83289141738644E-6;
2,23314236530269E-6;
3,30296944270717E-6;
3,84649776253708E-6;
2,4017102833326E-6;
-1,52662103339012E-6;
-6,74792526798718E-6;
-1,08915902213317E-5;
-1,19054313108491E-5;
-9,46156216479227E-6;
-5,16581367560569E-6;
-1,366943471963E-6;
5,20195015988603E-7;
8,590612497037E-7;
1,16515768398044E-6;
2,59577758296356E-6;
4,88319160521139E-6;
6,64420163559047E-6;
6,77821780720343E-6;
5,66204609392847E-6;
4,96358766814842E-6;
6,09114234015322E-6;
8,57464804018768E-6;
9,90358198114523E-6;
7,23145865513859E-6;
-2,39299300867208E-7;
-1,0112018577946E-5;
-1,79822686403992E-5;
-2,0243081523995E-5;
-1,64555941863737E-5;
-9,48685591332342E-6;
-3,32179683498021E-6;
-2,63207391567902E-7;
3,25807105771059E-7;
8,77504284207713E-7;
3,18419052130455E-6;
6,79682203872719E-6;
9,59534744668787E-6;
9,94575780522075E-6;
8,43955395235592E-6;
7,53446226959742E-6;
9,25065707290248E-6;
1,28788206567081E-5;
1,48439849484544E-5;
1,11806924966091E-5;
8,48164919465348E-7;
-1,27830486290046E-5;
-2,3669493332217E-5;
-2,69533546995726E-5;
-2,21072083836776E-5;
-1,30109344725578E-5;
-4,96111797078401E-6;
-9,71092468792295E-7;
-1,85024025437834E-7;
5,61280272952284E-7;
3,56597465004649E-6;
8,23502562492771E-6;
1,18621477986256E-5;
1,23899513002822E-5;
1,05806174362296E-5;
9,51743569582012E-6;
1,17039885574969E-5;
1,62413407186714E-5;
1,87148954892565E-5;
1,42786664524563E-5;
1,70173954984887E-6;
-1,48799338952718E-5;
-2,81380925622514E-5;
-3,2236650235637E-5;
-2,65797503939954E-5;
-1,58375982503051E-5;
-6,32783008651931E-6;
-1,61553879220528E-6;
-6,74720694330237E-7;
2,25449035419293E-7;
3,7735186299426E-6;
9,26294887352054E-6;
1,35357790322837E-5;
1,42094946781305E-5;
1,21776511874566E-5;
1,1002552842955E-5;
1,35566419961059E-5;
1,87956358585087E-5;
2,16656649473208E-5;
1,66525995446174E-5;
2,38262531679696E-6;
-1,64284391402337E-5;
-3,14826269874806E-5;
-3,62079644636146E-5;
-2,99580812813528E-5;
-1,79958673018349E-5;
-7,40198869362811E-6;
-2,15236717251042E-6;
-1,09407636025498E-6;
-7,62072595524912E-8;
3,87788854420934E-6;
9,9779768050432E-6;
1,47336112628186E-5;
1,55241339259711E-5;
1,33397004970193E-5;
1,20920414816637E-5;
1,4921220456653E-5;
2,0676758110481E-5;
2,38424998435561E-5;
1,84236896082144E-5;
2,94530775625979E-6;
-1,74605987124557E-5;
-3,38041565421389E-5;
-3,8991107665203E-5;
-3,23403861234314E-5;
-1,95336150039944E-5;
-8,18746858592069E-6;
-2,56474715371866E-6;
-1,42359624486603E-6;
-3,21749608195651E-7;
3,91573830753374E-6;
1,04402631399747E-5;
1,55334846970167E-5;
1,64128853873751E-5;
1,41347504999682E-5;
1,28467055548323E-5;
1,58678028774001E-5;
2,19756649338387E-5;
2,53467067410724E-5;
1,96695342127688E-5;
3,40437963843524E-6;
-1,80434227628321E-5;
-3,52346544170792E-5;
-4,07392163489114E-5;
-3,38551931338647E-5;
-2,05313367123915E-5;
-8,72256074058606E-6;
-2,8706072535729E-6;
-1,67773588094027E-6;
-5,22283625845845E-7;
3,89094380842214E-6;
1,06770007101097E-5;
1,59804980604083E-5;
1,69232894208014E-5;
1,46013536707158E-5;
1,32997614713264E-5;
1,64397447925683E-5;
2,27567520227405E-5;
2,62538594735021E-5;
2,04449583532387E-5;
3,75707583208049E-6;
-1,82547193524376E-5;
-3,59114261252053E-5;
-4,16081160034764E-5;
-3,46340316722774E-5;
-2,10743769998702E-5;
-9,0518736731873E-6;
-3,09423040167108E-6;
-1,87625737160904E-6;
-6,93189857143341E-7;
3,80332290613294E-6;
1,07109358412941E-5;
1,61152527486485E-5;
1,70993455009859E-5;
1,47762006617916E-5;
1,34839411335013E-5;
1,66801742239972E-5;
2,30836361282123E-5;
2,66388395801098E-5;
2,08063543348036E-5;
4,00697877238153E-6;
-1,81600116285547E-5;
-3,59547426679961E-5;
-4,17348595006237E-5;
-3,47910614090686E-5;
-2,12337211615681E-5;
-9,2083008253491E-6;
-3,24937470810288E-6;
-2,0284542239578E-6;
-8,3947216529688E-7;
3,66213262530963E-6;
1,05727112010431E-5;
1,59850384589806E-5;
1,69915786820327E-5;
1,47031238157939E-5;
1,34394333556346E-5;
1,66388548175046E-5;
2,30249425775828E-5;
2,65805811759745E-5;
2,08154865018529E-5;
4,16699259472344E-6;
-1,78103329239268E-5;
-3,54663969719037E-5;
-4,12370733920122E-5;
-3,4423235083784E-5;
-2,10669943967332E-5;
-9,21480506975465E-6;
-3,34175432445539E-6;
-2,13628530433021E-6;
-9,59496885592844E-7;
3,48175901011259E-6;
1,02959969941416E-5;
1,5638466186195E-5;
1,66512450370191E-5;
1,44269168407998E-5;
1,32073608580753E-5;
1,63653434560058E-5;
2,26471744576831E-5;
2,61547158855453E-5;
2,05319583923289E-5;
4,25169269650773E-6;
-1,7249939271161E-5;
-3,45374609971806E-5;
-4,0220740807273E-5;
-3,36180905201681E-5;
-2,06262272657636E-5;
-9,09213257203295E-6;
-3,37669078959367E-6;
-2,20191657657427E-6;
-1,05240636736816E-6;
3,2744424295465E-6;
9,91039533417289E-6;
1,51185639555526E-5;
1,61236238494483E-5;
1,39868373359736E-5;
1,28235152668936E-5;
1,59029897781533E-5;
2,20089789458842E-5;
2,54281001709574E-5;
2,00080131876579E-5;
4,27238047719882E-6;
-1,65210173072955E-5;
-3,32527193000009E-5;
-3,8784328443593E-5;
-3,24575472975453E-5;
-1,99613036202669E-5;
-8,86191856708432E-6;
-3,36189405934712E-6;
-2,23021178962916E-6;
-1,12031396263917E-6;
3,04839278422724E-6;
9,43984663911055E-6;
1,44614731439359E-5;
1,54469851156176E-5;
1,34158214135623E-5;
1,23178029079493E-5;
1,52886136365557E-5;
2,11610861165955E-5;
2,44589928649321E-5;
1,92888745330116E-5;
4,23752925252452E-6;
-1,56631523679599E-5;
-3,16900545631706E-5;
-3,7018032880194E-5;
-3,10169303660494E-5;
-1,91187577954862E-5;
-8,54527968203205E-6;
-3,30588894156825E-6;
-2,22703952918149E-6;
-1,16651662259123E-6;
2,80967927659565E-6;
8,90465216594367E-6;
1,36985608676634E-5;
1,46547368592923E-5;
1,27426488720675E-5;
1,17164346540168E-5;
1,4554745040339E-5;
2,01485937645938E-5;
2,32993579626342E-5;
1,84149998337691E-5;
4,15489103471117E-6;
-1,47114270517318E-5;
-2,99187029141163E-5;
-3,50020973424293E-5;
-2,93632694391208E-5;
-1,81399771735456E-5;
-8,16095583516607E-6;
-3,21617802941765E-6;
-2,19748524147147E-6;
-1,19375600581064E-6;
2,56394636786815E-6;
8,323160135022E-6;
1,28580777794774E-5;
1,37770278606858E-5;
1,19934319294318E-5;
1,10433107806539E-5;
1,37309480087762E-5;
1,90122652451945E-5;
2,19961094787376E-5;
1,74231736718637E-5;
4,03234145903042E-6;
-1,3695869728345E-5;
-2,79989572639707E-5;
-3,28066353364899E-5;
-2,75551081037282E-5;
-1,70609513963407E-5;
-7,72499479209988E-6;
-3,09891910550245E-6;
-2,14559088905212E-6;
-1,20401849896067E-6;
2,31658981281557E-6;
7,71196092653438E-6;
1,19653427104865E-5;
1,28408706531891E-5;
1,11916620046507E-5;
1,03199893753591E-5;
1,28437729417812E-5;
1,77885097493448E-5;
2,05910777108439E-5;
1,63463607754303E-5;
3,87749142479944E-6;
-1,26421297653741E-5;
-2,5983064152342E-5;
-3,04926136009542E-5;
-2,5643408051856E-5;
-1,59130208086165E-5;
-7,25137647952239E-6;
-2,95948961534021E-6;
-2,07491613883606E-6;
-1,19908562585031E-6;
2,07225945445737E-6;
7,08546294367726E-6;
1,10423871020026E-5;
1,18697848484828E-5;
1,03578087326201E-5;
9,56528380593289E-6;
1,1916391862763E-5;
1,65090902187628E-5;
1,91207667721351E-5;
1,52133949754935E-5;
3,69717712206941E-6;
-1,15722547019977E-5;
-2,39162023303889E-5;
-2,81128744159149E-5;
-2,3672451810901E-5;
-1,47235585865685E-5;
-6,75251388869116E-6;
-2,8028940005232E-6;
-1,98889541104981E-6;
-1,18086016536719E-6;
1,83460308154195E-6;
6,45574561844582E-6;
1,01078917903017E-5;
1,08837793059269E-5;
9,50929430928372E-6;
8,79522494799379E-6;
1,09686211794256E-5;
1,52012487083923E-5;
1,76165458227906E-5;
1,40491072156118E-5;
3,49737718175201E-6;
-1,05050534092828E-5;
-2,18370664931174E-5;
-2,57127523353148E-5;
-2,16803359315663E-5;
-1,35162720004175E-5;
-6,23935261138801E-6;
-2,63375463113017E-6;
-1,89081403078972E-6;
-1,15131239974441E-6;
1,60640636646362E-6;
5,83281418423649E-6;
9,17751892592917E-6;
9,8996881808826E-6;
8,66080575359408E-6;
8,02335962348663E-6;
1,00172665672038E-5;
1,3888148715201E-5;
1,61051270926569E-5;
1,28747159403582E-5;
3,28337352457218E-6;
-9,45623784138638E-6;
-1,97782433907315E-5;
-2,33305318114314E-5;
-1,96993146678014E-5;
-1,23113249006439E-5;
-5,72132592840464E-6;
-2,45618911278871E-6;
-1,78365424456809E-6;
-1,11230354526667E-6;
1,38981869034515E-6;
5,22490925483216E-6;
8,26430187500979E-6;
8,93157410711542E-6;
7,82464374303676E-6;
7,26107773473498E-6;
9,07648951297752E-6;
1,25893071851148E-5;
1,4609050064234E-5;
1,17082209542879E-5;
3,05988296053375E-6;
-8,43860433972478E-6;
-1,77666399138866E-5;
-2,09979453983994E-5;
-1,77561851743956E-5;
-1,1125539781346E-5;
-5,20639180838241E-6;
-2,27375704551585E-6;
-1,67003988137522E-6;
-1,06552293674054E-6;
1,18648588324583E-6;
4,63872678617501E-6;
7,37892463447181E-6;
7,99101266254267E-6;
7,01097440611685E-6;
6,51782775429734E-6;
8,15804997669916E-6;
1,13209327798771E-5;
1,31470483464985E-5;
1,056467514403E-5;
2,83110037328878E-6;
-7,46231832568202E-6;
-1,58240208078827E-5;
-1,87407888435811E-5;
-1,58728124609676E-5;
-9,97271770556416E-6;
-4,70116977011786E-6;
-2,08951668894195E-6;
-1,55226938750064E-6;
-1,01251047559704E-6;
9,97577578779769E-7;
4,07954915492473E-6;
6,52992452116499E-6;
7,08729848961932E-6;
6,22799528672932E-6;
5,80126593158328E-6;
7,27150098095844E-6;
1,00961935282202E-5;
1,17343689668802E-5;
9,4564135713078E-6;
2,6006792711827E-6;
-6,53523016338065E-6;
-1,39675685092172E-5;
-1,6579546370468E-5;
-1,4066636902366E-5;
-8,86395790949237E-6;
-4,21109614910641E-6;
-1,90609819869447E-6;
-1,43237235637837E-6;
-9,5469007908363E-7;
8,23818193603875E-7;
3,55136900210476E-6;
5,72389597466647E-6;
6,22765519890578E-6;
5,48210441956859E-6;
5,11740707843902E-6;
6,42438056789949E-6;
8,92549719550957E-6;
1,03830849883517E-5;
8,39328699165557E-6;
2,37174892719316E-6;
-5,6631643087705E-6;
-1,22104008607911E-5;
-1,45299823570174E-5;
-1,23511689412674E-5;
-7,80795052494591E-6;
-3,74054649638424E-6;
-1,7257379862616E-6;
-1,31212956241118E-6;
-8,93378183278915E-7;
6,65549202593988E-7;
3,05703632969836E-6;
4,96569316340844E-6;
5,41746795733138E-6;
4,77811195735015E-6;
4,47080563814362E-6;
5,62243316136867E-6;
7,81679118146677E-6;
9,10244875901281E-6;
7,38293643444237E-6;
2,14694866517447E-6;
-4,85016126830103E-6;
-1,05620340310902E-5;
-1,26036698559112E-5;
-1,07364155278918E-5;
-6,81123882790401E-6;
-3,29294185162659E-6;
-1,55030520068985E-6;
-1,193079346147E-6;
-8,29764491714687E-7;
5,22791145468222E-7;
2,5984081131381E-6;
4,25866704874271E-6;
4,6605135694584E-6;
4,11942633455635E-6;
3,86473768457564E-6;
4,86982318795573E-6;
6,77585089644932E-6;
7,89921739430435E-6;
6,43103863259117E-6;
1,92848217839448E-6;
-4,09869827301907E-6;
-9,02882655025855E-6;
-1,0808501655045E-5;
-9,22930378505781E-6;
-5,87845664170409E-6;
-2,87083824143199E-6;
-1,38132773732529E-6;
-1,07652450979285E-6;
-7,64912425205506E-7;
3,95307553321234E-7;
2,17650547383284E-6;
3,60486468191442E-6;
3,95917095768001E-6;
3,50824585088147E-6;
3,3013666887626E-6;
4,16933975292819E-6;
5,80656057890869E-6;
6,77796805905865E-6;
5,54154925143E-6;
1,71815791356875E-6;
-3,40991171708089E-6;
-7,61440746137671E-6;
-9,14917571850489E-6;
-7,83407975451468E-6;
-5,01257925982647E-6;
-2,47603072519894E-6;
-1,22001188526529E-6;
-9,63545235917729E-7;
-6,99757670914063E-7;
2,82652412832625E-7;
1,79162227696269E-6;
3,00520999259319E-6;
3,31461771701598E-6;
2,9457184824562E-6;
2,78188918204832E-6;
3,52257464992601E-6;
4,91115484701093E-6;
5,74138052210465E-6;
4,71692326428823E-6;
1,51741587682898E-6;
-2,78380802356286E-6;
-6,32006206129423E-6;
-7,6276415089438E-6;
-6,55268205647092E-6;
-4,21514464873773E-6;
-2,10965064508078E-6;
-1,06728766543275E-6;
-8,55025902564686E-7;
-6,35119294961777E-7;
1,84207587475841E-7;
1,44344499301891E-6;
2,45967465532938E-6;
2,72700902175479E-6;
2,4320994365818E-6;
2,30667111084004E-6;
2,930093395113E-6;
4,09045867743501E-6;
4,79050008798945E-6;
3,95831104726019E-6;
1,32736907591134E-6;
-2,21944163462572E-6;
-5,14510500318349E-6;
-6,24353269594389E-6;
-5,38509269141976E-6;
-3,48646555293223E-6;
-1,77225900782729E-6;
-9,23838122862753E-7;
-7,51670971168866E-7;
-5,71702937203412E-7;
9,92250939869595E-8;
1,13115812916355E-6;
1,96743388621112E-6;
2,19563604647597E-6;
1,96688833827944E-6;
1,87538481777394E-6;
2,39159301071775E-6;
3,34409433315228E-6;
3,92499210267401E-6;
3,2657608354518E-6;
1,14882690368387E-6;
-1,71510302157255E-6;
-4,08721509962319E-6;
-4,99454468624738E-6;
-4,32965405569663E-6;
-2,8258241860399E-6;
-1,46392522877779E-6;
-7,90121009164103E-7;
-6,54020766617986E-7;
-5,10108946741775E-7;
2,68587876374154E-8;
8,53537685095588E-7;
1,52701096469414E-6;
1,71908250467781E-6;
1,54895995187686E-6;
1,48711725728466E-6;
1,90604536892971E-6;
2,67068867940738E-6;
3,1433628902661E-6;
2,63838422269582E-6;
9,82338204228306E-7;
-1,26845461578576E-6;
-3,14273053506276E-6;
-3,87678598258181E-6;
-3,38336527511311E-6;
-2,2316523102865E-6;
-1,18430762858738E-6;
-6,66402612215336E-7;
-5,62463931949865E-7;
-4,50833276335372E-7;
-3,38070400484483E-8;
6,09037485446012E-7;
1,13640550157116E-6;
1,29536013624164E-6;
1,1766850834482E-6;
1,14048387371948E-6;
1,47182894149543E-6;
2,06804763057442E-6;
2,44317161736942E-6;
2,07452622558461E-6;
8,28221380235822E-7;
-8,7667534102575E-7;
-2,30692638838743E-6;
-2,88509081631465E-6;
-2,54213126681429E-6;
-1,7016833082907E-6;
-9,3271916121649E-7;
-5,52777874480567E-7;
-4,77264226222557E-7;
-3,94282504529666E-7;
-8,37243078415894E-8;
3,95866732841046E-7;
7,93206794583383E-7;
9,22032461650606E-7;
8,48035732127403E-7;
8,33723741397572E-7;
1,08685220902448E-6;
1,53332588288399E-6;
1,82121801078938E-6;
1,57191038746467E-6;
6,86589654514342E-7;
-5,36591771971044E-7;
-1,57425927143524E-6;
-2,01330443734244E-6;
-1,80101178779168E-6;
-1,23310156301073E-6;
-7,08195747836952E-7;
-4,49200165114368E-7;
-3,9856092137235E-7;
-3,40770620389992E-7;
-1,23863953363934E-7;
2,12061295153467E-7;
4,9470153040452E-7;
5,96322015245052E-7;
5,60681246094456E-7;
5,64788729036475E-7;
7,48658347722865E-7;
1,06317190487501E-6;
1,27370817797478E-6;
1,12776502195017E-6;
5,573857796542E-7;
-2,44768042038192E-7;
-9,38578495987149E-7;
-1,25453302389947E-6;
-1,15442338853863E-6;
-8,22672148889374E-7;
-5,09547413745893E-7;
-3,55495251431789E-7;
-3,26398380475979E-7;
-2,90536840538334E-7;
-1,55196127965266E-7;
5,5532853829807E-8;
2,37959004514571E-7;
3,15210586265458E-7;
3,12068484687745E-7;
3,31414965296223E-7;
4,5451528912851E-7;
6,53851190124507E-7;
7,96405049359019E-7;
7,38947944666767E-7;
4,40401878172052E-7;
2,38427970998006E-9;
-3,93319714442647E-7;
-6,01365742112754E-7;
-5,96325443645784E-7;
-4,66852580208277E-7;
-3,35421725846335E-7;
-2,71391125837049E-7;
-2,6072842008656E-7;
-2,43745314029114E-7;
-1,78673035095661E-7;
-7,58681337259292E-8;
1,99155526287018E-8;
7,5516552674928E-8;
9,94949388071476E-8;
1,3119331286556E-7;
2,01502064420956E-7;
3,01368020714655E-7;
3,8475865131547E-7;
4,02040750050423E-7;
3,35307837593967E-7;
2,08537182938703E-7;
6,8334019096068E-8;
-4,60640203051417E-8;
-1,20386409058797E-7;
-1,6189558436127E-7;
-1,84335405369052E-7;
-1,96533648437162E-7;
-2,0143377341727E-7;
-2,00496757182998E-7;
-1,95219248022055E-7;
-1,84320196092476E-7;
-1,62564584206502E-7;
-1,26025047108196E-7;
-7,98230901630888E-8;
-3,837088724498E-8;
-1,34125892011635E-8;
1,56388996434182E-9;
3,40213502312897E-8;
1,13451708187373E-7;
2,41671705359542E-7;
3,77369011878088E-7;
4,53309109613231E-7;
4,19269078077105E-7;
2,79886763031136E-7;
9,6071148749086E-8;
-5,47228682063399E-8;
-1,3049582813906E-7;
-1,48328802025839E-7;
-1,60837317602003E-7;
-2,05717901683896E-7;
-2,71982284754881E-7;
-3,12624838779319E-7;
-2,9270560979162E-7;
-2,28701482351321E-7;
-1,7981047479607E-7;
-1,93322036822414E-7;
-2,49803613984031E-7;
-2,60650084784102E-7;
-1,30515910973993E-7;
1,58977847145283E-7;
5,12513759245992E-7;
7,68519491261752E-7;
8,02549605817305E-7;
6,1101981321951E-7;
3,10957447672855E-7;
5,50287584912452E-8;
-7,28059906030607E-8;
-1,01181494133374E-7;
-1,24758126370141E-7;
-2,11004329582521E-7;
-3,40975763857739E-7;
-4,33375429750311E-7;
-4,277878021252E-7;
-3,49936880178029E-7;
-2,95655474352506E-7;
-3,41316738367245E-7;
-4,56974847023777E-7;
-5,04117117923965E-7;
-3,33589566078453E-7;
8,66528828709175E-8;
6,17511418550426E-7;
1,02077502661221E-6;
1,11159595875463E-6;
8,79475950279476E-7;
4,86660655875838E-7;
1,46552536813146E-7;
-2,29500360332736E-8;
-5,97146191014612E-8;
-9,22113088579068E-8;
-2,11860587012451E-7;
-3,93348403641215E-7;
-5,27845430522264E-7;
-5,34464885828378E-7;
-4,46275826020029E-7;
-3,88390130284725E-7;
-4,6044355622711E-7;
-6,24139676202598E-7;
-7,01179987938535E-7;
-4,99472399032935E-7;
2,40747864020985E-8;
6,95770302128187E-7;
1,21668832346479E-6;
1,35402917696773E-6;
1,09157054355687E-6;
6,27005619761532E-7;
2,21475379264092E-7;
1,96031752744547E-8;
-2,36224802556416E-8;
-6,31073636768674E-8;
-2,09009580296545E-7;
-4,31061286535461E-7;
-5,98958799759441E-7;
-6,15823120668426E-7;
-5,20376123807445E-7;
-4,60429900045974E-7;
-5,53670369156698E-7;
-7,55381300407011E-7;
-8,56523636901214E-7;
-6,3179552066718E-7;
-2,94119907018565E-8;
7,5053892097892E-7;
1,36261842159158E-6;
1,53719510194773E-6;
1,25340908813845E-6;
7,35705543255711E-7;
2,81396586320756E-7;
5,54064392698927E-8;
7,42533806598253E-9;
-3,7328693702162E-8;
-2,03118438239557E-7;
-4,55975457810388E-7;
-6,4949985173691E-7;
-6,74813848248509E-7;
-5,74789708701424E-7;
-5,14099427542926E-7;
-6,23856050574904E-7;
-8,54632759467529E-7;
-9,74670885200793E-7;
-7,34079435712687E-7;
-7,44797132571207E-8;
7,84880061962451E-7;
1,46461420960269E-6;
1,66810240235619E-6;
1,37082712938385E-6;
8,16323431343332E-7;
3,27868360557861E-7;
8,50171734636268E-8;
3,37757644342066E-8;
-1,4735460257653E-8;
-1,94791208209654E-7;
-4,69833605893728E-7;
-6,82104164390338E-7;
-7,14235349695777E-7;
-6,11936436059006E-7;
-5,51608591688562E-7;
-6,73725761513611E-7;
-9,25649302186146E-7;
-1,05994257478528E-6;
-8,09699018880268E-7;
-1,11807637050503E-7;
8,01658418966993E-7;
1,5283805747859E-6;
1,75337719846863E-6;
1,44935252044635E-6;
8,72246769672601E-7;
3,6238096159299E-7;
1,08982537414922E-7;
5,57820273328595E-8;
4,83851013484286E-9;
-1,84571299963625E-7;
-4,74258142887267E-7;
-6,99236776614013E-7;
-7,36713623064313E-7;
-6,34091598769555E-7;
-5,75041480082491E-7;
-7,05855164283702E-7;
-9,71979544702174E-7;
-1,11642833108788E-6;
-8,61867037185704E-7;
-1,42074169083688E-7;
8,03531009194E-7;
1,55924508288216E-6;
1,79922613705506E-6;
1,49417679603195E-6;
9,06669764520676E-7;
3,86359742196062E-7;
1,27849809616351E-7;
7,38040995811626E-8;
2,15707703484365E-8;
-1,72942700791153E-7;
-4,70746764802927E-7;
-7,03188018101782E-7;
-7,44690152043411E-7;
-6,43378967127736E-7;
-5,86348247056651E-7;
-7,22656374074158E-7;
-9,96954633293076E-7;
-1,14796644550142E-6;
-8,93603426162917E-7;
-1,65948824849321E-7;
7,92935214490551E-7;
1,56214723723526E-6;
1,81141639827325E-6;
1,51013201106884E-6;
9,22575008267626E-7;
4,01144152496904E-7;
1,4214299147271E-7;
8,81969474673569E-8;
3,56507769427128E-8;
-1,60333095065581E-7;
-4,60666001135491E-7;
-6,96065820432529E-7;
-7,4042800003601E-7;
-6,41764762744945E-7;
-5,87333695456081E-7;
-7,26370612205604E-7;
-1,00366952871753E-6;
-1,15813348919707E-6;
-9,07738029245005E-7;
-1,84078419287901E-7;
7,72101024992955E-7;
1,54162902714324E-6;
1,79526483269724E-6;
1,50168329217822E-6;
9,22729667178922E-7;
4,07991699905397E-7;
1,5237183986897E-7;
9,93133824931728E-8;
4,72759314472521E-8;
-1,47114508881906E-7;
-4,45260396958407E-7;
-6,79796286948698E-7;
-7,25989272866209E-7;
-6,31051167354648E-7;
-5,7966400400424E-7;
-7,19064442702123E-7;
-9,94977887760476E-7;
-1,15022780928612E-6;
-9,06888094141674E-7;
-1,97091274262369E-7;
7,43035201971534E-7;
1,5018278291203E-6;
1,7556310235489E-6;
1,47292198338048E-6;
9,09676597867798E-7;
4,08066696416858E-7;
1,59019026242525E-7;
1,07493570769112E-7;
5,66440789140135E-8;
-1,33607910192224E-7;
-4,25644694715229E-7;
-6,56125087904801E-7;
-7,03254173439497E-7;
-6,12879876532988E-7;
-5,64856206532645E-7;
-7,02627525365874E-7;
-9,73494540940231E-7;
-1,12727575387838E-6;
-8,93465906294033E-7;
-2,05586738278156E-7;
7,07541018978241E-7;
1,44649076019072E-6;
1,69692579451114E-6;
1,42756451925452E-6;
8,85738438291373E-7;
4,02447505796604E-7;
1,62540826193092E-7;
1,13067481040323E-7;
6,39582878389942E-8;
-1,20085425546516E-7;
-4,0281446052503E-7;
-6,26619115672314E-7;
-6,73913971917997E-7;
-5,88732635488397E-7;
-5,44284971265709E-7;
-6,78774834508462E-7;
-9,41594232511276E-7;
-1,09202795430765E-6;
-8,69669986226167E-7;
-2,10131465234788E-7;
6,67220377202277E-7;
1,37897522060315E-6;
1,62311312753522E-6;
1,36896499863189E-6;
8,5301471415497E-7;
3,92116877607706E-7;
1,63368914424288E-7;
1,16347686732319E-7;
6,94156952566338E-8;
-1,06773891762248E-7;
-3,77648359825251E-7;
-5,9267437273039E-7;
-6,39482458374654E-7;
-5,59937426429153E-7;
-5,19182980852378E-7;
-6,49048243452633E-7;
-9,01413710335078E-7;
-1,046965483914E-6;
-8,37496030156781E-7;
-2,11261167165877E-7;
6,23481712106352E-7;
1,30226946063776E-6;
1,53773421535874E-6;
1,30012494090626E-6;
8,13394137680834E-7;
3,77968532118806E-7;
1,61903936268662E-7;
1,17631744778937E-7;
7,32094651119079E-8;
-9,38597306611561E-8;
-3,50915871063988E-7;
-5,55523570808022E-7;
-6,0129739452118E-7;
-5,27673151391853E-7;
-4,90651428913207E-7;
-6,14826071950145E-7;
-8,54864864936862E-7;
-9,9431227138173E-7;
-7,98736112850144E-7;
-2,09471282332228E-7;
5,77551469832474E-7;
1,2190054061688E-6;
1,44391752481975E-6;
1,22370006591472E-6;
7,68557152257427E-7;
3,60805279105189E-7;
1,58510584342041E-7;
1,17200087273423E-7;
7,5530719058588E-8;
-8,14916314699069E-8;
-3,23281757414603E-7;
-5,16244537824324E-7;
-5,60533850758901E-7;
-4,92976204626026E-7;
-4,59660084985002E-7;
-5,77325997220437E-7;
-8,03640871113578E-7;
-9,3603758013422E-7;
-7,54987802054233E-7;
-2,05227098166175E-7;
5,30487500863757E-7;
1,13148155759556E-6;
1,34440481717786E-6;
1,14203154205512E-6;
7,19988476226832E-7;
3,41346277289747E-7;
1,53531658079361E-7;
1,15310813052901E-7;
7,65570301498301E-8;
-6,97841116075174E-8;
-2,95314309221667E-7;
-4,75768775541924E-7;
-5,18214335042837E-7;
-4,5674958044395E-7;
-4,2705457408125E-7;
-5,37617570285366E-7;
-7,49229514974184E-7;
-8,73874296457304E-7;
-7,07660931951841E-7;
-1,98949595790844E-7;
4,83188847245463E-7;
1,0416803855706E-6;
1,24157366182917E-6;
1,05714856132725E-6;
6,68982941922293E-7;
3,20226181926594E-7;
1,47271550690496E-7;
1,12205450997077E-7;
7,64607605795858E-8;
-5,88238380934887E-8;
-2,67493827121062E-7;
-4,34893621024215E-7;
-4,75212402367265E-7;
-4,1977001863587E-7;
-3,93571289907131E-7;
-4,9662855539979E-7;
-6,92920857006444E-7;
-8,09330430960019E-7;
-6,57991803994314E-7;
-1,91027982053035E-7;
4,36408442638851E-7;
9,51295973623882E-7;
1,13746199379471E-6;
9,70800723545744E-7;
6,16665238551495E-7;
2,98005040380182E-7;
1,40012280732114E-7;
1,08105464573618E-7;
7,54030894858787E-8;
-4,86695323798362E-8;
-2,40218669621983E-7;
-3,94289748345291E-7;
-4,32273343659119E-7;
-3,82702967467974E-7;
-3,59836904822472E-7;
-4,55153024692266E-7;
-6,35825420434599E-7;
-7,43707521375643E-7;
-6,07053609417169E-7;
-1,81810489660512E-7;
3,9077144452545E-7;
8,61749359437455E-7;
1,03379226357083E-6;
8,84472315628292E-7;
5,63991091485355E-7;
2,75166167131139E-7;
1,3200112102738E-7;
1,03210893749479E-7;
7,35363762721867E-8;
-3,93548722189795E-8;
-2,13811537379161E-7;
-3,54515458107072E-7;
-3,90015515184024E-7;
-3,46099672280709E-7;
-3,26379666422058E-7;
-4,13865110072657E-7;
-5,78882950885981E-7;
-6,78108203500669E-7;
-5,55760319759792E-7;
-1,71613291124103E-7;
3,46772685201015E-7;
7,742185248481E-7;
9,32002214082561E-7;
7,99408649298017E-7;
5,11775264060821E-7;
2,52126492567514E-7;
1,23458902900412E-7;
9,77054848687395E-8;
7,10002125789046E-8;
-3,08995743240207E-8;
-1,88530633082063E-7;
-3,16021626321401E-7;
-3,48948061254216E-7;
-3,10420756340034E-7;
-2,93638045531342E-7;
-3,73326324723396E-7;
-5,22883865985844E-7;
-6,13460382623723E-7;
-5,04889865218729E-7;
-1,60717523100095E-7;
3,04812648905082E-7;
6,8965970424527E-7;
8,33262717820224E-7;
7,16630717557446E-7;
4,60685764002056E-7;
2,2923942206334E-7;
1,14581135127514E-7;
9,17473912518551E-8;
6,79204350719744E-8;
-2,33013590980328E-8;
-1,64571857265861E-7;
-2,79169775271932E-7;
-3,09480978632356E-7;
-2,76036233010642E-7;
-2,61969902216036E-7;
-3,33997470894636E-7;
-4,68473732027985E-7;
-5,5052871785573E-7;
-4,5508632571444E-7;
-1,49368333665256E-7;
2,65184847664992E-7;
6,08829252322733E-7;
7,38516201537629E-7;
6,36963360228382E-7;
4,11273109564787E-7;
2,06797016434224E-7;
1,05535576474843E-7;
8,54864023701097E-8;
6,44175492792023E-8;
-1,65453653905436E-8;
-1,42080682281755E-7;
-2,44236675334649E-7;
-2,71929554742129E-7;
-2,43234649822988E-7;
-2,31659008955275E-7;
-2,9624555749702E-7;
-4,16171106644129E-7;
-4,89928556454433E-7;
-4,06876120280886E-7;
-1,37782458655496E-7;
2,28102202812205E-7;
5,32299945483326E-7;
6,48486058754544E-7;
5,61049861270138E-7;
3,63971569469832E-7;
1,85044229452899E-7;
9,64702615923759E-8;
7,90472168539787E-8;
6,05957689412746E-8;
-1,06050964822855E-8;
-1,21154450940828E-7;
-2,11423272352441E-7;
-2,36532397024287E-7;
-2,12237870613552E-7;
-2,02922388233148E-7;
-2,60357710023152E-7;
-3,66382709755035E-7;
-4,32144383788805E-7;
-3,6068196275693E-7;
-1,26147904558005E-7;
1,93705299729427E-7;
4,60493600396415E-7;
5,63715194346661E-7;
4,89377929930217E-7;
3,1911503254472E-7;
1,64172931900453E-7;
8,75068330054829E-8;
7,25394392612013E-8;
5,65517197341272E-8;
-5,44649487233094E-9;
-1,01854214384659E-7;
-1,80869329897574E-7;
-2,03455931322964E-7;
-1,83201567707959E-7;
-1,75920413655501E-7;
-2,26546974606216E-7;
-3,1941301140565E-7;
-3,77542438366283E-7;
-3,16827128475886E-7;
-1,14623742271639E-7;
1,62070141773532E-7;
3,93690271376954E-7;
4,84576287370972E-7;
4,22292366704598E-7;
2,76948895966314E-7;
1,44333136013666E-7;
7,87511399288275E-8;
6,60601604648064E-8;
5,23675499173433E-8;
-1,02895808259599E-9;
-8,42016143588958E-8;
-1,52654452632102E-7;
-1,72807814829793E-7;
-1,5623218220739E-7;
-1,50762627724978E-7;
-1,9496174089314E-7;
-2,7547518878104E-7;
-3,26384402647249E-7;
-2,75552480746245E-7;
-1,03342729314015E-7;
1,33217931446281E-7;
3,32051972736486E-7;
4,11303372620573E-7;
3,60016720736922E-7;
2,3764273083204E-7;
1,25637935386161E-7;
7,02856910324959E-8;
5,9687228746919E-8;
4,81185217245986E-8;
2,69836771469847E-9;
-6,81936921853749E-8;
-1,26815410982411E-7;
-1,44639902951918E-7;
-1,31384350295385E-7;
-1,2751154889795E-7;
-1,65694334316383E-7;
-2,34708370780907E-7;
-2,78841392486765E-7;
-2,37023319418394E-7;
-9,24172426988293E-8;
1,07124968712704E-7;
2,75636365928877E-7;
3,44003877413509E-7;
3,02667799596088E-7;
2,01293730229449E-7;
1,0816770357133E-7;
6,21819972248169E-8;
5,34904622784359E-8;
4,3868558636534E-8;
5,78443129732947E-9;
-5,37981284345039E-8;
-1,03342382392369E-7;
-1,18958777339892E-7;
-1,0867329850755E-7;
-1,06194625665579E-7;
-1,38788712571104E-7;
-1,97179815588207E-7;
-2,35004787233566E-7;
-2,01337999991407E-7;
-8,19341475746675E-8;
8,37279263013947E-8;
2,2441705470417E-7;
2,82683092162411E-7;
2,50272761528358E-7;
1,67944961249166E-7;
9,19689842842353E-8;
5,44903606312924E-8;
4,75237689269832E-8;
3,96726464740678E-8;
8,28195659942684E-9;
-4,09691509621509E-8;
-8,21945619691515E-8;
-9,57355405117909E-8;
-8,80836631809652E-8;
-8,68060994821358E-8;
-1,14250271102744E-7;
-1,62902593829501E-7;
-1,94900236829942E-7;
-1,68546568201777E-7;
-7,1966588363738E-8;
6,29375858096564E-8;
1,78295101898539E-7;
2,27255747184776E-7;
2,02783083736543E-7;
1,37587005830186E-7;
7,70660088549198E-8;
4,72516609952489E-8;
4,18299321232474E-8;
3,55770474598327E-8;
1,0245925110007E-8;
-2,96424893328776E-8;
-6,33035646512035E-8;
-7,49072868623892E-8;
-6,95695557677603E-8;
-6,93127887355845E-8;
-9,2046474029815E-8;
-1,31841393566127E-7;
-1,58493094857257E-7;
-1,38640559216985E-7;
-6,25665575650805E-8;
4,46336914069841E-8;
1,37112317486892E-7;
1,77569783402901E-7;
1,60087296624355E-7;
1,10169162712546E-7;
6,34589173467237E-8;
4,04921280495896E-8;
3,64434898962198E-8;
3,16208681786953E-8;
1,17319145355218E-8;
-1,97400024135014E-8;
-4,65798646621876E-8;
-5,63899731896906E-8;
-5,30613674471954E-8;
-5,3659870768794E-8;
-7,21183491231915E-8;
-1,03918089539244E-7;
-1,25707292217364E-7;
-1,11580524441967E-7;
-5,3770416080023E-8;
2,86836241734416E-8;
1,00664283447E-7;
1,3340815183199E-7;
1,22022392157586E-7;
8,56107380441925E-8;
5,11338049909725E-8;
3,42302826576002E-8;
3,13905561735208E-8;
2,78342643867231E-8;
1,27888760851853E-8;
-1,11763813941597E-8;
-3,19134442636019E-8;
-4,00761911266634E-8;
-3,84727298696874E-8;
-3,97751630469482E-8;
-5,43823040930047E-8;
-7,90236225531615E-8;
-9,64219603358945E-8;
-8,72886717275331E-8;
-4,560355826118E-8;
1,49396387056984E-8;
6,87119559994898E-8;
9,45122771133094E-8;
8,83838540154266E-8;
6,37980034139992E-8;
4,0056599213703E-8;
2,84720878581572E-8;
2,66847213923657E-8;
2,42427091072001E-8;
1,34725725259162E-8;
-3,86118412912868E-9;
-1,91847014622686E-8;
-2,58444633404751E-8;
-2,5703682896167E-8;
-2,75717105548049E-8;
-3,87400740805599E-8;
-5,7027328230814E-8;
-7,04893737960162E-8;
-6,56619102584838E-8;
-3,80774619167631E-8;
3,24376707893466E-9;
4,09857777871647E-8;
6,05902174719649E-8;
5,89411402158586E-8;
4,46005497084926E-8;
3,01850312470084E-8;
2,3218628148497E-8;
2,2337239165006E-8;
2,08628505482336E-8;
1,3828374811415E-8;
2,3005363641059E-9;
-8,26471459834807E-9;
-1,35638995770763E-8;
-1,46441969322612E-8;
-1,69525880140745E-8;
-2,50734918202082E-8;
-3,77709739087389E-8;
-4,77382555378362E-8;
-4,65787103263949E-8;
-3,1192923582225E-8;
-6,56594758927839E-9;
1,72016547780988E-8;
3,13231272423868E-8;
3,34332339838183E-8;
2,78693829989613E-8;
2,14644497778882E-8;
1,84619000970961E-8;
1,83511681501518E-8;
1,77086761859224E-8;
1,39055370076064E-8;
7,40755727713157E-9;
9,83366191259252E-10;
-3,09475685545667E-9;
-5,17561574577741E-9;
-7,81401181333044E-9;
-1,32621382771845E-8;
-2,10894323656412E-8;
-2,79767078972455E-8;
-2,98969852821333E-8;
-2,49452110957484E-8;
-1,46524925122076E-8;
-2,93659740817447E-9;
6,37713478511564E-9;
1,15918277934681E-8;
1,34445132507152E-8;
1,38331143044265E-8;
1,41904993290926E-8;
1,4725718425874E-8;
1,47883602752739E-8;
1,37449604357924E-8;
1,15566315176877E-8;
8,69765107314312E-9;
5,70544246323532E-9;
2,82201090809479E-9;
-4,93979538031312E-11;
-3,17428153576376E-9;
-6,8018631359208E-9;
-1,10026014098916E-8;
-1,54691045749917E-8;
-1,93198777033837E-8;
-2,11773774990529E-8;
-1,97306003700031E-8;
-1,45910549862369E-8;
-6,86540315452026E-9;
1,1610996107407E-9;
7,22343081781312E-9;
1,03847306374002E-8;
1,14529577527489E-8;
1,21053415902159E-8;
1,33898068156567E-8;
1,48424685315852E-8;
1,50129409972765E-8;
1,29810041819971E-8;
9,47425407526062E-9;
6,45417452224061E-9;
5,32550522504389E-9;
5,27200818794975E-9;
3,38800423855404E-9;
-3,13544784222986E-9;
-1,42953562090772E-8;
-2,63025185828012E-8;
-3,34823549221378E-8;
-3,19230030104001E-8;
-2,22209444253911E-8;
-9,15346254205178E-9;
1,56630321936938E-9;
7,02676184443066E-9;
8,5239593645721E-9;
9,66123923325055E-9;
1,28761470632085E-8;
1,73582502922421E-8;
2,00687070452297E-8;
1,88740050102167E-8;
1,49008611142551E-8;
1,18077427113703E-8;
1,2372435049509E-8;
1,53203352377965E-8;
1,5412989269222E-8;
7,26759629222728E-9;
-9,84765696740743E-9;
-3,01812272668039E-8;
-4,44880981020876E-8;
-4,59615787043049E-8;
-3,47585160453649E-8;
-1,76697305391799E-8;
-3,2120833961255E-9;
4,09226270672049E-9;
5,92550921081217E-9;
7,44986766759246E-9;
1,22368469230591E-8;
1,91938346766597E-8;
2,39941875877435E-8;
2,35253129657957E-8;
1,92248622423442E-8;
1,61190824436518E-8;
1,81001608850033E-8;
2,35242239954091E-8;
2,52786495097207E-8;
1,59020961913084E-8;
-5,94787502168493E-9;
-3,2959637593659E-8;
-5,3035076728611E-8;
-5,70398419824809E-8;
-4,47536004430387E-8;
-2,45545118603401E-8;
-7,18378957599953E-9;
1,55410303658417E-9;
3,64160628716222E-9;
5,46929918586848E-9;
1,15021412954938E-8;
2,04336735066321E-8;
2,69195048566495E-8;
2,7066745268034E-8;
2,25610825106821E-8;
1,94960976622471E-8;
2,26383871903384E-8;
3,00658041548454E-8;
3,31948397615985E-8;
2,29305884318517E-8;
-2,56344688662698E-9;
-3,47793273781206E-8;
-5,94026284851384E-8;
-6,54801644794985E-8;
-5,24776571215581E-8;
-2,99770916658115E-8;
-1,04219490618763E-8;
-6,1139919325149E-10;
1,65501440146397E-9;
3,70922321697201E-9;
1,06996329391482E-8;
2,11560223509107E-8;
2,89631092581811E-8;
2,96326624752381E-8;
2,50249778132483E-8;
2,20408986897873E-8;
2,6117351305433E-8;
3,51215054604437E-8;
3,93619421994999E-8;
2,85102705347745E-8;
3,39388711349405E-10;
-3,57685139135475E-8;
-6,38517018658926E-8;
-7,15894771961259E-8;
-5,81866173487559E-8;
-3,40916556662643E-8;
-1,29978656470602E-8;
-2,4354932102757E-9;
-5,13267612649549E-11;
2,16158550892492E-9;
9,85220486662976E-9;
2,14364288375803E-8;
3,02407577165428E-8;
3,13416000066657E-8;
2,67188558620829E-8;
2,38529607248614E-8;
2,86577507863011E-8;
3,88572666459236E-8;
4,39762713647273E-8;
3,27961101713428E-8;
2,79340278325225E-9;
-3,60537624109793E-8;
-6,66348245064695E-8;
-7,56598075641247E-8;
-6,21255612795685E-8;
-3,70537641229873E-8;
-1,49823005282114E-8;
-3,94450012615208E-9;
-1,49783190733212E-9;
8,15289081808554E-10;
8,98149291872866E-9;
2,1344833608115E-8;
3,08606575931632E-8;
3,23097640684834E-8;
2,77468462130257E-8;
2,50255900881378E-8;
3,03749586001163E-8;
4,14359096904582E-8;
4,72227982968862E-8;
3,59349727075733E-8;
4,83600803285164E-9;
-3,57442469234979E-8;
-6,79805152243239E-8;
-7,79633741192062E-8;
-6,45257449871174E-8;
-3,9006581682441E-8;
-1,64403733620989E-8;
-5,16780522923262E-9;
-2,70628621536143E-9;
-3,42479161545827E-10;
8,10466352911698E-9;
2,09430360094844E-8;
3,09194345075401E-8;
3,26441177806323E-8;
2,82017078846373E-8;
2,56453331203353E-8;
3,13783489160566E-8;
4,30039736049911E-8;
4,9273890150834E-8;
3,80669764242101E-8;
6,50259550595745E-9;
-3,49434144162052E-8;
-6,81067342384976E-8;
-7,87565369211503E-8;
-6,56032697164689E-8;
-4,00863763342823E-8;
-1,7436523014805E-8;
-6,1324883602633E-9;
-3,6946980302873E-9;
-1,32360667232607E-9;
7,2361558099427E-9;
2,02891633816132E-8;
3,0509592904907E-8;
3,24430041559676E-8;
2,81702117171337E-8;
2,57914550900736E-8;
3,17664941525687E-8;
4,37049891549405E-8;
5,02950260407539E-8;
3,93218551469653E-8;
7,82734646422533E-9;
-3,37461455397066E-8;
-6,72117344583429E-8;
-7,82736321281993E-8;
-6,55579938400575E-8;
-4,04176461254792E-8;
-1,80279423197387E-8;
-6,86439103882693E-9;
-4,48405356497666E-9;
-2,14165839058153E-9;
6,38923878005379E-9;
1,94338122472065E-8;
2,97137366414196E-8;
3,17985653534261E-8;
2,773159549024E-8;
2,5540081278928E-8;
3,16362999611034E-8;
4,36672396245575E-8;
5,04369612958449E-8;
3,98248612958656E-8;
8,84659198042307E-9;
-3,22333620765068E-8;
-6,5473970936561E-8;
-7,67290381677237E-8;
-6,45711751046985E-8;
-4,01174362262476E-8;
-1,82744908090168E-8;
-7,39101402174842E-9;
-5,09419397992627E-9;
-2,81062591292814E-9;
5,57323004899485E-9;
1,84231501459758E-8;
2,86070264642895E-8;
3,07922720994305E-8;
2,6960037503051E-8;
2,49597600686444E-8;
3,10728739978358E-8;
4,30123438125139E-8;
4,98388955745117E-8;
3,96878548141838E-8;
9,592015680986E-9;
-3,04830433283539E-8;
-6,30581027228113E-8;
-7,43201591352225E-8;
-6,28124934274451E-8;
-3,92906968183299E-8;
-1,82251324297122E-8;
-7,73606445062941E-9;
-5,54269215818314E-9;
-3,34171472848148E-9;
4,79694092236084E-9;
1,73001170835135E-8;
2,72589282871592E-8;
2,94977632920175E-8;
2,59205367306018E-8;
2,41126721739624E-8;
3,01543628455308E-8;
4,18495924887555E-8;
4,86301152317205E-8;
3,9014008639983E-8;
1,00953795559438E-8;
-2,85588964307911E-8;
-6,0112044676364E-8;
-7,12220175791469E-8;
-6,04315053582535E-8;
-3,80362878408978E-8;
-1,7928054122237E-8;
-7,92217187147063E-9;
-5,84887638150371E-9;
-3,75047147691001E-9;
4,06587050282473E-9;
1,60988764484943E-8;
2,57268081337219E-8;
2,79813667835507E-8;
2,46710465462108E-8;
2,30526376434884E-8;
2,8950937683601E-8;
4,02756561574614E-8;
4,69239187283275E-8;
3,79009444977907E-8;
1,03877093087405E-8;
-2,65199178280124E-8;
-5,67641033720111E-8;
-6,7592864197661E-8;
-5,75637837876437E-8;
-3,64392851737976E-8;
-1,74274049557641E-8;
-7,9724851570734E-9;
-6,03095038989359E-9;
-4,04882565607326E-9;
3,38423120394484E-9;
1,48499264650739E-8;
2,40642398845586E-8;
2,63007656452568E-8;
2,32642747019826E-8;
2,18315661070721E-8;
2,75268408721039E-8;
3,83810275658849E-8;
4,48267389923924E-8;
3,64335277871525E-8;
1,0495945225058E-8;
-2,4416132813456E-8;
-5,312977362539E-8;
-6,35714959989586E-8;
-5,4331038311863E-8;
-3,45798071484815E-8;
-1,67629349778395E-8;
-7,90762047032153E-9;
-6,10478882607852E-9;
-4,24866808666611E-9;
2,75705419568865E-9;
1,35819665590666E-8;
2,23166303995138E-8;
2,45093872633634E-8;
2,17480582635504E-8;
2,04917913136745E-8;
2,59381438880802E-8;
3,62450390644352E-8;
4,2430832774038E-8;
3,46898562425842E-8;
1,04490018045346E-8;
-2,22888589592408E-8;
-4,93108064859479E-8;
-5,92814923755673E-8;
-5,08377005384361E-8;
-3,2525829400393E-8;
-1,59696393606298E-8;
-7,74512158379479E-9;
-6,08487380597649E-9;
-4,36211392843311E-9;
2,18293921884746E-9;
1,23171771941272E-8;
2,05259573036701E-8;
2,26500200963298E-8;
2,01623044491912E-8;
1,90736058082557E-8;
2,42334545785295E-8;
3,39369189845668E-8;
3,98190359018071E-8;
3,27387655696815E-8;
1,02695711651714E-8;
-2,01758644886399E-8;
-4,53923115251112E-8;
-5,48279923428075E-8;
-4,71779187089229E-8;
-3,03386804095739E-8;
-1,50783029831098E-8;
-7,5019290996108E-9;
-5,98708097769E-9;
-4,40124554658161E-9;
1,66506970737704E-9;
1,10732555986255E-8;
1,87232758223383E-8;
2,07617830654376E-8;
1,8538957969242E-8;
1,76091857476866E-8;
2,24575788466414E-8;
3,15158990618449E-8;
3,70620083770104E-8;
3,06391348108459E-8;
9,97861070031939E-9;
-1,81055553603881E-8;
-4,14474889247498E-8;
-5,03033783149356E-8;
-4,343130641461E-8;
-2,80703949186073E-8;
-1,41179575532035E-8;
-7,19543050572721E-9;
-5,8239386837008E-9;
-4,37656752506607E-9;
1,19967560100172E-9;
9,86612608239147E-9;
1,69399027033435E-8;
1,88785857979748E-8;
1,69110452255981E-8;
1,61271387113664E-8;
2,06451334763726E-8;
2,90359653978569E-8;
3,42230740165927E-8;
2,8444949681893E-8;
9,60058302620244E-9;
-1,61022987561164E-8;
-3,75415384526229E-8;
-4,57851094417037E-8;
-3,96665560112859E-8;
-2,57679196003179E-8;
-1,31132666085302E-8;
-6,83930180549403E-9;
-5,60806522313117E-9;
-4,29650681769599E-9;
7,88752757841162E-10;
8,70753416958621E-9;
1,51978104836397E-8;
1,70245213246381E-8;
1,53001109487753E-8;
1,46534546370088E-8;
1,88309851527904E-8;
2,65424566826204E-8;
3,13552767239179E-8;
2,62032416393657E-8;
9,15191748820157E-9;
-1,41868341682679E-8;
-3,37222284962279E-8;
-4,13363802646394E-8;
-3,59399604980628E-8;
-2,34679980704124E-8;
-1,20841160937497E-8;
-6,44344610972231E-9;
-5,34858162908744E-9;
-4,17251457950098E-9;
4,28494780310648E-10;
7,60819891981971E-9;
1,35157692507979E-8;
1,52236480614937E-8;
1,37285817502935E-8;
1,32067142604127E-8;
1,70398340409379E-8;
2,40714241878928E-8;
2,85044197622164E-8;
2,39528477017796E-8;
8,6499257769821E-9;
-1,23707555653686E-8;
-3,00326210349964E-8;
-3,70123816820874E-8;
-3,22998604120374E-8;
-2,12048826750873E-8;
-1,10508644531515E-8;
-6,02330768549698E-9;
-5,05821466636232E-9;
-4,01133632572392E-9;
1,18322017721664E-10;
6,57592759075963E-9;
1,1909162346981E-8;
1,34932885347729E-8;
1,22132005794964E-8;
1,18018838181857E-8;
1,52927094450261E-8;
2,1657189537996E-8;
2,57085021858868E-8;
2,17259469097912E-8;
8,10854343856395E-9;
-1,06682420793297E-8;
-2,65070171504E-8;
-3,28564086257679E-8;
-2,87851334553646E-8;
-1,90037956965832E-8;
-1,00262210835254E-8;
-5,58448361880306E-9;
-4,74412247693345E-9;
-3,82103289830417E-9;
-1,46819601318843E-10;
5,61149595496784E-9;
1,03897865507295E-8;
1,18492887266563E-8;
1,07678479774966E-8;
1,04557562755381E-8;
1,36096933365983E-8;
1,93240507923926E-8;
2,29979182177677E-8;
1,95510510161276E-8;
7,54277803688409E-9;
-9,0854747789959E-9;
-2,31690222098738E-8;
-2,8898826430748E-8;
-2,54251696343308E-8;
-1,68854310759264E-8;
-9,02474478046732E-9;
-5,13932298134324E-9;
-4,4141984604945E-9;
-3,6090393680005E-9;
-3,68864726132172E-10;
4,72233033020431E-9;
8,96583290598685E-9;
1,02988371889201E-8;
9,39920192760546E-9;
9,17640135399912E-9;
1,2003962829119E-8;
1,70907790610633E-8;
2,0396790264327E-8;
1,74485220144268E-8;
6,96116784760404E-9;
-7,62556055629022E-9;
-2,00373306688571E-8;
-2,51666988103378E-8;
-2,22437561544721E-8;
-1,48691963813394E-8;
-8,05610522328504E-9;
-4,69241057287807E-9;
-4,07482845062746E-9;
-3,37922211300898E-9;
-5,51267043994918E-10;
3,90759898341652E-9;
7,64295967141965E-9;
8,85088484069867E-9;
8,11714514984023E-9;
7,97158580175687E-9;
1,04860775622168E-8;
1,4975774673476E-8;
1,79260054554743E-8;
1,54395719103383E-8;
6,376550203315E-9;
-6,29194717260133E-9;
-1,71228852356444E-8;
-2,16774301172396E-8;
-1,92597303284978E-8;
-1,2965836555212E-8;
-7,12956440935252E-9;
-4,25074985305581E-9;
-3,73301244926314E-9;
-3,1403703931089E-9;
-6,95150237525276E-10;
3,1682366407319E-9;
6,42306551465677E-9;
7,51048718789374E-9;
6,92527011342603E-9;
6,8474798483463E-9;
9,0626738165161E-9;
1,29872555460542E-8;
1,55990358516065E-8;
1,35338921777194E-8;
5,7964431890933E-9;
-5,08213642636763E-9;
-1,44364995373233E-8;
-1,84415328565109E-8;
-1,64817804153569E-8;
-1,11860646354576E-8;
-6,25002425548259E-9;
-3,82033773380977E-9;
-3,39394936723041E-9;
-2,8951134829311E-9;
-8,07822187440855E-10;
2,50347324595289E-9;
5,30907066844902E-9;
6,27773462839777E-9;
5,82730000987299E-9;
5,80709191044515E-9;
7,73957553326417E-9;
1,11350046800672E-8;
1,34251002393716E-8;
1,17434425710522E-8;
5,22686983288166E-9;
-3,99524143710971E-9;
-1,19761684174628E-8;
-1,54655989511508E-8;
-1,39171506624815E-8;
-9,53221542942827E-9;
-5,42323069983371E-9;
-3,40411543421669E-9;
-3,06018639655516E-9;
-2,64820369479138E-9;
-8,91531537408289E-10;
1,9085908462537E-9;
4,29915348381006E-9;
5,155279498587E-9;
4,82310910690184E-9;
4,8515786593719E-9;
6,51955576079805E-9;
9,42227971052059E-9;
1,14101997587584E-8;
1,00759703748943E-8;
4,67607918525827E-9;
-3,0280445194278E-9;
-9,74324032901394E-9;
-1,27492250844902E-8;
-1,1568095504716E-8;
-8,00911350415359E-9;
-4,65252905282272E-9;
-3,00669731344886E-9;
-2,73653618014082E-9;
-2,40352028019554E-9;
-9,47130260745944E-10;
1,38401568099304E-9;
3,39043785272591E-9;
4,14056127864856E-9;
3,9113028700084E-9;
3,98046184028195E-9;
5,4040121085794E-9;
7,85305166660994E-9;
9,55953098972624E-9;
8,5326019116271E-9;
4,14572492262663E-9;
-2,17411540456913E-9;
-7,73291589360968E-9;
-1,02905924387571E-8;
-9,43391241697012E-9;
-6,61814813929484E-9;
-3,93915788279678E-9;
-2,62933003129343E-9;
-2,4251266666828E-9;
-2,16293679006317E-9;
-9,80438339522963E-10;
9,24316087882443E-10;
2,58103701598519E-9;
3,23179928424795E-9;
3,09264867910945E-9;
3,19299095963981E-9;
4,3909826456588E-9;
6,42496476964438E-9;
7,87073246307561E-9;
7,11737856051828E-9;
3,64175549700785E-9;
-1,42783370280295E-9;
-5,93955669650968E-9;
-8,08523200488437E-9;
-7,51022949892198E-9;
-5,35779724869021E-9;
-3,28445948386369E-9;
-2,27451369973628E-9;
-2,12914675485696E-9;
-1,93013807471312E-9;
-9,94072181254635E-10;
5,27521183978479E-10;
1,86669881583311E-9;
2,42184123546627E-9;
2,3615117266662E-9;
2,48887355571131E-9;
3,47872192134107E-9;
5,1351578932844E-9;
6,34240655036589E-9;
5,82865766467731E-9;
3,1660953063326E-9;
-7,83626398958526E-10;
-4,35048639524295E-9;
-6,11992662722146E-9;
-5,79119403580466E-9;
-4,22348805697799E-9;
-2,68785472009959E-9;
-1,94391529644251E-9;
-1,84860896668286E-9;
-1,70560200422121E-9;
-9,89499625758045E-10;
1,87185582521268E-10;
1,24144823975284E-9;
1,71072448436292E-9;
1,7153043515809E-9;
1,86217450007027E-9;
2,66458638818107E-9;
3,98126877044298E-9;
4,97073750684147E-9;
4,66397962449179E-9;
2,72096152624201E-9;
-2,33445576868894E-10;
-2,95993444437568E-9;
-4,38853989221534E-9;
-4,2683142768618E-9;
-3,2135513793154E-9;
-2,14893237126892E-9;
-1,63833985640449E-9;
-1,58862608760886E-9;
-1,49395011134892E-9;
-9,71724629583326E-10;
-9,99189971294234E-11;
7,00653850114213E-10;
1,09063601075641E-9;
1,14929697442906E-9;
1,30991342874235E-9;
1,94423600754609E-9;
2,95651619812265E-9;
3,74880559888876E-9;
3,62094503594886E-9;
2,30849034212E-9;
2,2956660223307E-10;
-1,75180760529356E-9;
-2,87297564104349E-9;
-2,93103316956597E-9;
-2,32034014835461E-9;
-1,66596479808591E-9;
-1,35811468900446E-9;
-1,34417982027963E-9;
-1,29254320346818E-9;
-9,41370732160702E-10;
-3,37647911205572E-10;
2,37737548304176E-10;
5,5609751686544E-10;
6,59781114503034E-10;
8,28842812422348E-10;
1,31252363467418E-9;
2,05547416748428E-9;
2,67097456857118E-9;
2,69473938794658E-9;
1,92806154068326E-9;
6,11463115946186E-10;
-7,1729381057321E-10;
-1,56482747796608E-9;
-1,76906699149275E-9;
-1,53782607569978E-9;
-1,2353737830149E-9;
-1,10334738235948E-9;
-1,12134489351089E-9;
-1,1040041944831E-9;
-9,02332119927427E-10;
-5,31285711400566E-10;
-1,51278073641905E-10;
9,95815655467581E-11;
2,38831156538977E-10;
4,1353247391152E-10;
7,63891411131739E-10;
1,27043814010119E-9;
1,72902368790691E-9;
1,87843362939173E-9;
1,58052510584608E-9;
9,22239289017229E-10;
1,59057598589895E-10;
-4,46544062179742E-10;
-7,70456196626069E-10;
-8,60875515772751E-10;
-8,58321826873133E-10;
-8,72890375598813E-10;
-9,16895260212036E-10;
-9,305863398774E-10;
-8,53996220974696E-10;
-6,84876601501825E-10;
-4,75071734211577E-10;
-2,81267265295445E-10;
-1,15650795037259E-10;
6,09957444785752E-11;
2,93913547868348E-10;
5,93297563628665E-10;
9,13732786358109E-10;
1,16604194851643E-9;
1,26469199476405E-9;
1,16716708627263E-9;
8,89024202027544E-10;
4,95504481606512E-10;
7,81648797105007E-11;
-2,79549000763622E-10;
-5,27817640400914E-10;
-6,64595245073376E-10;
-7,30950824005019E-10;
-7,7056379149417E-10;
-8,0016723209472E-10;
-8,01945438221224E-10;
-7,384829047001E-10;
-5,97211844543336E-10;
-4,11258203884757E-10;
-2,36138360318651E-10;
-1,03745185384221E-10;
1,91653662014951E-11;
2,17431980806849E-10;
5,51838572340253E-10;
9,81248321624522E-10;
1,35357938717573E-9;
1,48586220988204E-9;
1,27655882430352E-9;
7,85851802467647E-10;
2,10789573401586E-10;
-2,42681337107422E-10;
-4,80992991247357E-10;
-5,63465853222051E-10;
-6,24105176621415E-10;
-7,43642428678462E-10;
-8,88126039620158E-10;
-9,47324932106921E-10;
-8,5189925188622E-10;
-6,52442618939361E-10;
-4,82185288882494E-10;
-4,37764216868894E-10;
-4,63970112269061E-10;
-3,68418201689473E-10;
2,81306506105149E-11;
7,26250389133971E-10;
1,48923235050173E-9;
1,96404799951918E-9;
1,91118063605507E-9;
1,36820848091008E-9;
6,19436646396282E-10;
-3,39251525888485E-13;
-3,19447730738712E-10;
-4,13927630238806E-10;
-4,9155458889667E-10;
-6,84952521351345E-10;
-9,4671743619854E-10;
-1,10879579012677E-9;
-1,05255812373875E-9;
-8,44090211985514E-10;
-6,82074644792428E-10;
-7,10080821080185E-10;
-8,61266197449415E-10;
-8,56457459190614E-10;
-4,11419933413037E-10;
5,03063204745629E-10;
1,58037947768352E-9;
2,33500820086412E-9;
2,41425838714758E-9;
1,83478230528218E-9;
9,51852465860812E-10;
2,04400537695679E-10;
-1,78296722172924E-10;
-2,84017000123003E-10;
-3,72224379655187E-10;
-6,22947860449605E-10;
-9,8063217715628E-10;
-1,22599294870024E-9;
-1,20557337326412E-9;
-9,93166084305407E-10;
-8,36396541464335E-10;
-9,27748887372261E-10;
-1,18319045917685E-9;
-1,25134809973523E-9;
-7,75180665121884E-10;
3,0546088187469E-10;
1,6309826484773E-9;
2,60902553653098E-9;
2,80064227689802E-9;
2,20101492353814E-9;
1,21817187384653E-9;
3,72734647744809E-10;
-5,6518939586183E-11;
-1,67409296855503E-10;
-2,65665861618801E-10;
-5,62327873322818E-10;
-9,94282264652286E-10;
-1,30625057456021E-9;
-1,31498741263306E-9;
-1,10234021608935E-9;
-9,55062478535667E-10;
-1,09645226742931E-9;
-1,43526354233298E-9;
-1,56791926119821E-9;
-1,07013117311906E-9;
1,3628821176973E-10;
1,65049866965215E-9;
2,80289111376846E-9;
3,08297835313472E-9;
2,47425959207731E-9;
1,42325160898039E-9;
5,08548616996341E-10;
4,6838388352441E-11;
-6,7988306964466E-11;
-1,72733374673122E-10;
-5,02982274345276E-10;
-9,90791545116118E-10;
-1,35417546144411E-9;
-1,38794015218435E-9;
-1,17790615320285E-9;
-1,04075766132222E-9;
-1,22253385924443E-9;
-1,62563239302812E-9;
-1,80937970422607E-9;
-1,3022114808863E-9;
-8,71108574733105E-12;
1,64010628732999E-9;
2,92073891301454E-9;
3,27468629502933E-9;
2,66758711602674E-9;
1,575091277545E-9;
6,17153436715054E-10;
1,33269332889765E-10;
1,79232065871635E-11;
-9,00513289505006E-11;
-4,44555338010538E-10;
-9,71969681394251E-10;
-1,3733891094043E-9;
-1,42835179802871E-9;
-1,22411765762869E-9;
-1,09683891303196E-9;
-1,31092628193504E-9;
-1,7631288258415E-9;
-1,98644342134289E-9;
-1,47993192592111E-9;
-1,32509773181838E-10;
1,6074601203083E-9;
2,977694045078E-9;
3,38719400769271E-9;
2,79135127136397E-9;
1,68013466529059E-9;
6,98654055534898E-10;
2,04109483682111E-10;
8,89684785317646E-11;
-2,0377889017667E-11;
-3,88236327029188E-10;
-9,4258616974108E-10;
-1,37108938353007E-9;
-1,44145317870299E-9;
-1,24507309971045E-9;
-1,12846779498885E-9;
-1,36555601391251E-9;
-1,85270763338023E-9;
-2,10604856011025E-9;
-1,60691179975606E-9;
-2,35433510705811E-10;
1,55539039119915E-9;
2,98134364695069E-9;
3,43104210105876E-9;
2,85347229141989E-9;
1,74358529189929E-9;
7,58225564024192E-10;
2,62186638757408E-10;
1,49124156176873E-10;
4,01685627043804E-11;
-3,35237924708408E-10;
-9,0284622875676E-10;
-1,34583170848446E-9;
-1,42917837641401E-9;
-1,24394638873247E-9;
-1,1388007614252E-9;
-1,39124375557469E-9;
-1,9007474467352E-9;
-2,17721404212845E-9;
-1,69135502568489E-9;
-3,18212842386997E-10;
1,48878379461906E-9;
2,94085993027775E-9;
3,41920317303593E-9;
2,86552020917013E-9;
1,77218627027004E-9;
7,96749385247024E-10;
3,07042148356566E-10;
1,97640469934286E-10;
8,96945457007146E-11;
-2,85075735675937E-10;
-8,55566977468453E-10;
-1,30633264789414E-9;
-1,39985086437394E-9;
-1,22485583412308E-9;
-1,13022004849955E-9;
-1,39460812023977E-9;
-1,91494871047817E-9;
-2,20561363817719E-9;
-1,73859205803645E-9;
-3,84342170728536E-10;
0,00933343545528308;
0,0226297326879727;
0,0163727406346154;
0,0094330990103125;
0,012169393555885;
0,00702616814882507;
0,00563481747026101;
0,00458271028957218;
0,000840500222598606;
0,0010323921337908;
-0,00119044029928335;
-0,00199195391152641;
-0,00280713828996704;
-0,00455368251110776;
-0,00488732610694419;
-0,00585590208491919;
-0,00594121917220792;
-0,00618249052162172;
-0,006993578422596;
-0,0079207039826543;
-0,00934888667189705;
-0,0102428859564055;
-0,0105184961348611;
-0,0101085203762958;
-0,0092076629232538;
-0,00843029597770526;
-0,0078304338047731;
-0,00745747123225969;
-0,00704805311294088;
-0,00641867726427907;
-0,00567545438082177;
-0,00495848846230382;
-0,00445308270991185;
-0,00409076855690613;
-0,00366382693960477;
-0,00302656877855566;
-0,00222823440203119;
-0,0015728312334945;
-0,00136107820161864;
-0,00166524604662869;
-0,00222572419228126;
-0,00258705914682931;
-0,00240675919257384;
-0,00165718204705279;
-0,000624732319399247;
0,000316670515572491;
0,000963663902784667;
0,00137586915557404;
0,00176513193976701;
0,00227846177612209;
0,00287371114651984;
0,00337820793135543;
0,00366494104672699;
0,00378442450127579;
0,0039247466105003;
0,00423344677035531;
0,00465410135017343;
0,00492912738710085;
0,00478539440808401;
0,00416205541040939;
0,00329839524910204;
0,00260120741524339;
0,00238404973240964;
0,00267133702040668;
0,00320917226193162;
0,00366539635935105;
0,00385876865410173;
0,00384594494841181;
0,00381730523460014;
0,00390618875392814;
0,00407638867583699;
0,0041746189116573;
0,0040891470099183;
0,00386593748305166;
0,00367394980133031;
0,00364551812364046;
0,00373088204007275;
0,00370125424251785;
0,00331394728462186;
0,00251555432749346;
0,00151956540920812;
0,000688091101505949;
0,00029992430750518;
0,000376498747466179;
0,000692036564375115;
0,000951433158084807;
0,000993755658571991;
0,000869183798496633;
0,0007463048746096;
0,000742935748221224;
0,000826535345422431;
0,000860913914488961;
0,000746774380733105;
0,000524375785839751;
0,000342640900209351;
0,00031791763944284;
0,000405550869113232;
0,000402858485647185;
9,51180796775322E-5;
-0,000565181466208157;
-0,0107236155493544;
-0,0246910016313739;
-0,0187063518725609;
-0,011622357031741;
-0,0139972372683303;
-0,00853592215389603;
-0,00701192088914466;
-0,00596902255015938;
-0,00223033966270967;
-0,00231727185368005;
8,97656200432597E-5;
0,00103463521001848;
0,00186474192392879;
0,00353260170724059;
0,00382392579188833;
0,00488786217756772;
0,00516656100800378;
0,00552145438977974;
0,0061783512895181;
0,00664177213708377;
0,00746064958946793;
0,0078775979561725;
0,00802158867727483;
0,0078405322295787;
0,00735462586029079;
0,00695105663895582;
0,00655991827880126;
0,00626843205356577;
0,00594145099677025;
0,00548465808894928;
0,00497855029839234;
0,00445879578497493;
0,00403463591983705;
0,00366783282194587;
0,0032633535013045;
0,00276323391682236;
0,00218226842089751;
0,00167054826934397;
0,0013662228942365;
0,00130576013329388;
0,00137147202051188;
0,00134804527454029;
0,00107699295608108;
0,000543585742242719;
-0,000116333227059598;
-0,000724582496032994;
-0,00118434667917539;
-0,0015224490588062;
-0,00184024489788394;
-0,00220794460893144;
-0,00260531857566712;
-0,00294924226450357;
-0,00317776944755241;
-0,00331523472487365;
-0,00345292302721212;
-0,00366309320430868;
-0,00391872331896323;
-0,00409377997183217;
-0,00405387491520785;
-0,00376838379060512;
-0,0033550197848735;
-0,00301538361799663;
-0,00290602633099762;
-0,00304040466966207;
-0,00329290845883612;
-0,00349792615208799;
-0,00356466090426584;
-0,00352164891790382;
-0,00346521618552221;
-0,00346340005972297;
-0,00349853033236198;
-0,00349315143321106;
-0,00339050110638878;
-0,00321419594397282;
-0,0030511572724872;
-0,00297002207570669;
-0,00294586865318866;
-0,00286092603801414;
-0,00258939619132625;
-0,00210309202534871;
-0,00151283555101824;
-0,00100787913678937;
-0,000734994405864213;
-0,000706569200230376;
-0,00080473119014754;
-0,000874202145230485;
-0,000829829659836228;
-0,000698122522820327;
-0,000568858738482382;
-0,000505246861685645;
-0,000490307745918593;
-0,000451225584837362;
-0,000334549391823456;
-0,000161839936915566;
-1,36448955521467E-5;
4,66536368039547E-5;
4,29404588329587E-5;
8,55681561168939E-5;
0,000292249823187657;
0,000689730014997391;
0,00117541362090735;
0,00157389006574419;
0,00174943097940253;
0,00169131893334795;
0,00150982704311235;
0,00134983276593948;
0,0012909731466112;
0,00130920980607008;
0,0013218508534247;
0,00127090375898807;
0,00117271430973077;
0,00109530314666491;
0,00108867080259669;
0,00113332864348702;
0,00115522330402588;
0,00109623000453642;
0,000978921471459001;
0,000905711088080343;
0,000985676417904135;
0,00124377266184941;
0,00158554345739278;
0,00184943305829293;
0,00191061604774105;
0,00175959648784165;
0,00149834232793321;
0,00126056835171769;
0,00111977188884805;
0,00105394619426183;
0,000987128366005585;
0,00086611934634404;
0,000706078484689874;
0,000569605730136696;
0,000502666269385068;
0,000487362570259361;
0,000455720826371109;
0,000354428887851266;
0,000204209478789659;
9,89328380218387E-5;
0,000138466018076813;
0,000345511538721324;
0,000633403984398899;
0,000854136519174308;
0,000893434184138653;
0,000742588537341629;
0,000494784322165717;
0,000272122054994025;
0,000141579961380219;
8,28697232301978E-5;
2,64724447707268E-5;
-7,63033269771899E-5;
-0,00021176941217901;
-0,000323009284271516;
-0,000368322153394211;
-0,000364219679911277;
-0,000372793879579408;
-0,000442733528578867;
-0,000555323914453624;
-0,000625343722927285;
-0,000562199475912475;
-0,000345503899491896;
-5,42355212162563E-5;
0,000177001708803104;
0,000244346412539623;
0,000139816382392993;
-5,21462130715561E-5;
-0,000220952882648064;
-0,00030605796940375;
-0,000326011498148345;
-0,000343916659153351;
-0,000403962698108154;
-0,00049385629527341;
-0,000562215694825871;
-0,000571455991877371;
-0,00053662445456126;
-0,00051392003725927;
-0,000547380581318105;
-0,000620159781853781;
-0,000655416957220984;
-0,000571530808122345;
-0,000350239707438562;
-6,28361284117567E-5;
0,000169349605353673;
0,000252780526380817;
0,000180303275653075;
2,79297311148362E-5;
-0,000104872771037524;
-0,000163699730681788;
-0,000165257594278191;
-0,00016624802020323;
-0,000206336686093782;
-0,00027446149527754;
-0,00032450295663163;
-0,000322751554898994;
-0,000282699649712862;
-0,000254692988318177;
-0,000278136388311242;
-0,000337891448908317;
-0,000365145526997194;
-0,000286870218018696;
-8,67516223227595E-5;
0,000171472884291325;
0,000379420800221838;
0,000453623864295707;
0,000387793487812813;
0,000249850025589191;
0,00012857656377022;
7,25121569419957E-5;
6,67934474739343E-5;
6,09499198545225E-5;
1,97225462239305E-5;
-4,69757350327371E-5;
-9,8059419912192E-5;
-0,000103515754345691;
-7,53097805535037E-5;
-5,81342762043231E-5;
-8,69261865242453E-5;
-0,000148180052951782;
-0,000180785114027311;
