2,00119706013142E-9;
4,88574958377034E-9;
6,03647555140482E-9;
5,28037864374891E-9;
3,47737296156309E-9;
1,82144272914074E-9;
1,00074552952472E-9;
8,44139195096856E-10;
6,73171426057543E-10;
-6,95057153090673E-12;
-1,07431643753381E-9;
-1,9590311472496E-9;
-2,22702415745995E-9;
-2,02087196813722E-9;
-1,95761613728417E-9;
-2,54359949426372E-9;
-3,60881968652844E-9;
-4,29200152503216E-9;
-3,63783097199849E-9;
-1,37105868514885E-9;
1,76681197464194E-9;
4,42430677932119E-9;
5,50131107664774E-9;
4,83188260352045E-9;
3,19992502718791E-9;
1,69801816972917E-9;
9,54000012823021E-10;
8,14220281329301E-10;
6,59269551303762E-10;
3,80672932384445E-11;
-9,37785607045419E-10;
-1,75267883622031E-9;
-2,0069386517001E-9;
-1,82814532742392E-9;
-1,78099362344356E-9;
-2,32546075868742E-9;
-3,30958263064234E-9;
-3,94802482322242E-9;
-3,36572445121333E-9;
-1,31143692635307E-9;
1,54446368917337E-9;
3,97437104674356E-9;
4,97334382313632E-9;
4,38739008733752E-9;
2,92320696732958E-9;
1,56973002295005E-9;
9,00485639093605E-10;
7,77678431700372E-10;
6,39468543028428E-10;
7,69931909760679E-11;
-8,11144597490811E-10;
-1,55576091593064E-9;
-1,79350592906861E-9;
-1,6406427762576E-9;
-1,60620599223426E-9;
-2,1093995758674E-9;
-3,0113425235323E-9;
-3,60160666043769E-9;
-3,09075383737496E-9;
-1,24403017619304E-9;
1,33485419356618E-9;
3,53872596280054E-9;
4,4596638305605E-9;
3,9508691568623E-9;
2,64750340373701E-9;
1,44073675185301E-9;
8,45291029329145E-10;
7,37030892111521E-10;
6,14612633910906E-10;
1,08999510154272E-10;
-6,92892122294292E-10;
-1,36709781151262E-9;
-1,58801534357924E-9;
-1,45844802879252E-9;
-1,43637326013513E-9;
-1,89719715314097E-9;
-2,71643035709564E-9;
-3,26014305726455E-9;
-2,81555024569876E-9;
-1,16963009538678E-9;
1,13899194447873E-9;
3,1226088441775E-9;
3,96402264794655E-9;
3,52792164162829E-9;
2,38026177617972E-9;
1,31143545868851E-9;
7,83486468899848E-10;
6,92221317371356E-10;
5,84660284910899E-10;
1,31882014388881E-10;
-5,83783800561614E-10;
-1,18876578774208E-9;
-1,39264067084887E-9;
-1,28572401852019E-9;
-1,27377352067171E-9;
-1,69146548611423E-9;
-2,4315274695182E-9;
-2,92704322866292E-9;
-2,54491347685226E-9;
-1,09190275441698E-9;
9,59145163965487E-10;
2,72871262677538E-9;
3,49132285966346E-9;
3,12342575412044E-9;
2,12072066208888E-9;
1,1836055178241E-9;
7,23154425557294E-10;
6,4518404968873E-10;
5,50724249853631E-10;
1,52141275834965E-10;
-4,82583894865722E-10;
-1,02268234575728E-9;
-1,20948076524915E-9;
-1,12327282308636E-9;
-1,11942668653287E-9;
-1,49565055905165E-9;
-2,15838469712132E-9;
-2,60646251572461E-9;
-2,28186789248377E-9;
-1,01055006487475E-9;
7,94826417126049E-10;
2,35997718425668E-9;
3,04528436145696E-9;
2,73908926383857E-9;
1,87260965836307E-9;
1,06019470031422E-9;
6,61224707043948E-10;
5,9481084931403E-10;
5,14754535289284E-10;
1,65974754288997E-10;
-3,91626128661879E-10;
-8,68940129978337E-10;
-1,0392668190254E-9;
-9,69343983756526E-10;
-9,72787312104573E-10;
-1,30940291294908E-9;
-1,89791696199463E-9;
-2,30097279692297E-9;
-2,02867071530581E-9;
-9,28356739619522E-10;
6,44925646900316E-10;
2,01633911068314E-9;
2,62717280800872E-9;
2,37821598954522E-9;
1,63858232523844E-9;
9,41711604271538E-10;
6,0088688692745E-10;
5,46561000410596E-10;
4,78544228976859E-10;
1,76429968157441E-10;
-3,08339631903009E-10;
-7,2663187243349E-10;
-8,79711405000853E-10;
-8,25887988068929E-10;
-8,37110660888835E-10;
-1,13525264322164E-9;
-1,65145071333976E-9;
-2,01148782476857E-9;
-1,78816793584941E-9;
-8,46029221228378E-10;
5,08669220337187E-10;
1,69921743367551E-9;
2,24013376259968E-9;
2,04060844028172E-9;
1,41911035404622E-9;
8,29153465220783E-10;
5,40103525675084E-10;
4,9648073857397E-10;
4,40914380342892E-10;
1,8217339114935E-10;
-2,35506652120908E-10;
-5,96700283833322E-10;
-7,33847743219054E-10;
-6,95415916202549E-10;
-7,10874412680288E-10;
-9,72542961211184E-10;
-1,42273399680337E-9;
-1,73990938916962E-9;
-1,55987953694641E-9;
-7,65156160680994E-10;
3,88468041804209E-10;
1,4091924729683E-9;
1,88287719086739E-9;
1,72951270164755E-9;
1,21396930151173E-9;
7,22350280895475E-10;
4,83062184813536E-10;
4,47587436922693E-10;
4,01750833635311E-10;
1,83908589342415E-10;
-1,71055360742116E-10;
-4,80362510502731E-10;
-6,01573816603328E-10;
-5,74725294642278E-10;
-5,94285462508304E-10;
-8,22504599877548E-10;
-1,20995172923539E-9;
-1,48803718466238E-9;
-1,34767164850095E-9;
-6,85964856941056E-10;
2,82409356492244E-10;
1,14557461391014E-9;
1,55620517306446E-9;
1,44393174721817E-9;
1,02520280720988E-9;
6,22110092581367E-10;
4,27420425801978E-10;
4,00659289739599E-10;
3,64440437318814E-10;
1,83845990727641E-10;
-1,13364951402035E-10;
-3,74109133005969E-10;
-4,81303463209006E-10;
-4,67037057543352E-10;
-4,8888496751862E-10;
-6,8443929501002E-10;
-1,01413736179901E-9;
-1,25469742596032E-9;
-1,14965096494158E-9;
-6,09941015498893E-10;
1,88927612751234E-10;
9,08871113685931E-10;
1,26105940489699E-9;
1,18283893862808E-9;
8,52249287038342E-10;
5,30390628231705E-10;
3,74870613751699E-10;
3,56099739734941E-10;
3,27706061041713E-10;
1,7971493584696E-10;
-6,45530055678874E-11;
-2,81548595979361E-10;
-3,73957884150754E-10;
-3,68015334650283E-10;
-3,93253353944819E-10;
-5,59584157785215E-10;
-8,36064156393809E-10;
-1,04154805834707E-9;
-9,66847545130049E-10;
-5,3844944009931E-10;
1,07689048602779E-10;
6,97152446313302E-10;
9,94621517980832E-10;
9,48276794638331E-10;
6,94892379600166E-10;
4,44808855809959E-10;
3,25239101145957E-10;
3,13072920309856E-10;
2,9227036306254E-10;
1,7336182993865E-10;
-2,26462240218589E-11;
-1,99156991669446E-10;
-2,79419977793621E-10;
-2,80254102667621E-10;
-3,06116931500484E-10;
-4,46035822916056E-10;
-6,74492929046145E-10;
-8,48036399934837E-10;
-8,00426096761267E-10;
-4,70032032724853E-10;
3,85988435462524E-11;
5,10160165149393E-10;
7,57487967852757E-10;
7,36545792195456E-10;
5,52880769740474E-10;
3,66680449855446E-10;
2,78095439309457E-10;
2,72491679577482E-10;
2,57434836994816E-10;
1,6595300231379E-10;
1,37432772024968E-11;
-1,2759097819152E-10;
-1,95070775399075E-10;
-2,02526274255938E-10;
-2,30750022782201E-10;
-3,45085398852472E-10;
-5,28991017342244E-10;
-6,73696281103032E-10;
-6,49060796111404E-10;
-4,05838074064215E-10;
-2,00440527988724E-11;
3,46010135775584E-10;
5,48646240154624E-10;
5,5021509469991E-10;
4,25531596971697E-10;
2,96342929492543E-10;
2,36015578383277E-10;
2,33156810837363E-10;
2,25548879264892E-10;
1,59312327093936E-10;
4,25203399168252E-11;
-6,62875182327676E-11;
-1,21860820171463E-10;
-1,35398409830526E-10;
-1,63386708598436E-10;
-2,54988282352818E-10;
-4,00153013708779E-10;
-5,177323709541E-10;
-5,1174283080657E-10;
-3,45372286630958E-10;
-6,80309868627238E-11;
2,0441092392579E-10;
3,65327112370215E-10;
3,85429322542947E-10;
3,13118008155063E-10;
2,32538842727192E-10;
1,97129304712429E-10;
1,99155364616632E-10;
1,94617575467585E-10;
1,48192079273108E-10;
6,69209315644238E-11;
-1,29435748136878E-11;
-6,00092632819646E-11;
-7,71807765701763E-11;
-1,03764414374864E-10;
-1,76166221958185E-10;
-2,86831671458189E-10;
-3,79652866851914E-10;
-3,90989161489151E-10;
-2,9115914255232E-10;
-1,07182588099845E-10;
8,21967582015898E-11;
2,0578305114633E-10;
2,42012950808416E-10;
2,15175155841695E-10;
1,75953569854879E-10;
1,60518333948266E-10;
1,66155059135303E-10;
1,66272774018354E-10;
1,39520648027763E-10;
8,67107216412085E-11;
3,13083026435391E-11;
-5,06621191412363E-12;
-2,64744055996157E-11;
-5,31999930855534E-11;
-1,06640029236511E-10;
-1,86360917922787E-10;
-2,59170150129377E-10;
-2,8420108695262E-10;
-2,40194934237641E-10;
-1,3863854393101E-10;
-2,0615953346317E-11;
7,12079578839092E-11;
1,18847896272565E-10;
1,28876516601662E-10;
1,25548954161029E-10;
1,28169503346466E-10;
1,35657062027537E-10;
1,39417069784375E-10;
1,28731023033202E-10;
1,01244413397167E-10;
6,78938390651533E-11;
3,87048343008657E-11;
1,56244188609909E-11;
-9,65434580253237E-12;
-4,81548409136632E-11;
-1,00383464830622E-10;
-1,53539132917201E-10;
-1,89433299825464E-10;
-1,93787751452536E-10;
-1,62591546586769E-10;
-1,06398710079529E-10;
-4,30141177955796E-11;
1,35645115105182E-11;
5,57987115970932E-11;
8,24406210558667E-11;
9,8470212388302E-11;
1,09072856016381E-10;
1,15941650433266E-10;
1,17878323749743E-10;
1,11284180487354E-10;
9,64873526385061E-11;
7,53917831984689E-11;
5,08185862749211E-11;
2,63925262297288E-11;
1,11195884484282E-12;
-2,66728618404572E-11;
-6,19435733257519E-11;
-1,0717471646335E-10;
-1,52163634454091E-10;
-1,80662572157457E-10;
-1,77615066074995E-10;
-1,38393136704277E-10;
-7,48316899783367E-11;
-8,10856679666917E-12;
4,3172201701386E-11;
7,21879950472398E-11;
8,50929117969863E-11;
9,39268794551961E-11;
1,06905614980131E-10;
1,18919943655615E-10;
1,19272606660843E-10;
1,05132501718906E-10;
7,98128012602655E-11;
5,62672664768057E-11;
4,45600454902734E-11;
3,60628508725952E-11;
1,44111042218944E-11;
-3,69446357209381E-11;
-1,15802253156532E-10;
-1,92393655647877E-10;
-2,33558830597683E-10;
-2,16883379641021E-10;
-1,4707916093815E-10;
-5,94275790982589E-11;
1,15658766256096E-11;
5,04693931287662E-11;
6,37341460491863E-11;
7,35968439328962E-11;
9,52420166156311E-11;
1,2327279596418E-10;
1,38780532718121E-10;
1,29029553726188E-10;
1,02744194875224E-10;
8,09237869819821E-11;
7,78078507144591E-11;
8,75548660438952E-11;
7,95781873686792E-11;
2,27245750573224E-11;
-8,17156065874392E-11;
-1,99091501057525E-10;
-2,77636329734598E-10;
-2,77714950182883E-10;
-2,05485364050698E-10;
-1,02512424625683E-10;
-1,50713141396594E-11;
3,01673592401487E-11;
4,38885685106658E-11;
5,60760778401078E-11;
8,53075164089977E-11;
1,25159852053547E-10;
1,50886987214437E-10;
1,46157044617524E-10;
1,20311553910569E-10;
9,99563669583968E-11;
1,05970146630848E-10;
1,29662300497397E-10;
1,31481299634085E-10;
7,23464332931157E-11;
-5,25004782055253E-11;
-2,02738011293514E-10;
-3,09807213301591E-10;
-3,25090612909351E-10;
-2,52396951897065E-10;
-1,37009473235467E-10;
-3,79588180444251E-11;
1,23423595162499E-11;
2,67138102549867E-11;
4,00990446893632E-11;
7,49959126689352E-11;
1,23854579110792E-10;
1,58836019281063E-10;
1,58727498894082E-10;
1,33149473021903E-10;
1,14859182707557E-10;
1,28625424741735E-10;
1,63682339055918E-10;
1,73947369550292E-10;
1,12889318431637E-10;
-2,74685037353014E-11;
-2,01258670987543E-10;
-3,31585522465222E-10;
-3,60509054076695E-10;
-2,87806758016078E-10;
-1,6518716172841E-10;
-5,75963684540367E-11;
-2,56131866664506E-12;
1,195574598443E-11;
2,61536822505104E-11;
6,51297988773375E-11;
1,21954848446822E-10;
1,63920563213652E-10;
1,65976483904419E-10;
1,41465857824544E-10;
1,25432440163279E-10;
1,44584729463374E-10;
1,88679688333232E-10;
2,06523145559241E-10;
1,45272479224371E-10;
-6,25641666182616E-12;
-1,97867667002328E-10;
-3,45077930781914E-10;
-3,85004604224644E-10;
-3,13150714607257E-10;
-1,84841394458864E-10;
-7,20672487270709E-11;
-1,45032865914381E-11;
-5,35862528006583E-13;
1,41486372807655E-11;
5,62941319145486E-11;
1,17589217007391E-10;
1,65567113057235E-10;
1,71687557651104E-10;
1,47804725043433E-10;
1,32727151718769E-10;
1,55581521222182E-10;
2,06849374959211E-10;
2,31808209269785E-10;
1,7064762283702E-10;
1,20579767477675E-11;
-1,91122111389169E-10;
-3,51863083713406E-10;
-4,00045964102742E-10;
-3,28949262814521E-10;
-1,98823596276083E-10;
-8,43677829638341E-11;
-2,48678565729408E-11;
-1,02820016774762E-11;
3,54726108316788E-12;
4,79042290412467E-11;
1,13126476671922E-10;
1,64123024515288E-10;
1,72840613954305E-10;
1,49384738435099E-10;
1,36031175761051E-10;
1,64035323728658E-10;
2,19755020114319E-10;
2,48218162360903E-10;
1,8919579641393E-10;
2,7308631204267E-11;
-1,83922599568881E-10;
-3,5195697307226E-10;
-4,05216256424576E-10;
-3,38106267912729E-10;
-2,08305330580273E-10;
-9,19175616470858E-11;
-3,27314025629266E-11;
-1,89913887699214E-11;
-5,28806422394631E-12;
3,94892576109218E-11;
1,07459381055128E-10;
1,60828385367872E-10;
1,70632712877367E-10;
1,49414430715642E-10;
1,37642705599428E-10;
1,68176774513024E-10;
2,28214681936524E-10;
2,60212844053495E-10;
2,02939609518468E-10;
3,97373878751582E-11;
-1,74166749787521E-10;
-3,46697241488521E-10;
-4,05275430722175E-10;
-3,41185316894526E-10;
-2,12645095230212E-10;
-9,69151542299357E-11;
-3,99252475525345E-11;
-2,71193601684021E-11;
-1,25082621911455E-11;
3,24028844100375E-11;
1,00033730588287E-10;
1,53989417970838E-10;
1,66695005803816E-10;
1,47413991999979E-10;
1,37093099291435E-10;
1,69047314552406E-10;
2,3049121153373E-10;
2,65735353019545E-10;
2,11411984180339E-10;
5,02019697546916E-11;
-1,63992701594235E-10;
-3,37830976981521E-10;
-3,98534392317411E-10;
-3,38124409166015E-10;
-2,13589000431437E-10;
-1,0170261415436E-10;
-4,45001480958953E-11;
-3,16730605135952E-11;
-1,97177231984134E-11;
2,51389712095395E-11;
9,37929457544458E-11;
1,48422465776842E-10;
1,61806298387691E-10;
1,43107325115659E-10;
1,33489209280459E-10;
1,66726411780419E-10;
2,30389929813281E-10;
2,66876529256977E-10;
2,14165130765814E-10;
5,79281331063796E-11;
-1,52102085240458E-10;
-3,25385458545426E-10;
-3,87494591685947E-10;
-3,31431872049637E-10;
-2,11538615952347E-10;
-1,02915767054962E-10;
-4,83920555902044E-11;
-3,60189369721003E-11;
-2,4326719294718E-11;
1,91924149517745E-11;
8,62293394375239E-11;
1,39452710846412E-10;
1,53760396974084E-10;
1,37956128383161E-10;
1,30420862999045E-10;
1,64028001417594E-10;
2,26623076874131E-10;
2,63330420627879E-10;
2,14910942120374E-10;
6,38725144937465E-11;
-1,40435972734098E-10;
-3,08827105662573E-10;
-3,7217442818527E-10;
-3,20521930433247E-10;
-2,05867905841842E-10;
-1,02061452195066E-10;
-5,00338960985753E-11;
-3,97652997974169E-11;
-2,87246766252863E-11;
1,40344350738974E-11;
7,91737034618427E-11;
1,32086681279089E-10;
1,46221932110881E-10;
1,30715357397144E-10;
1,24264081321479E-10;
1,57687919160092E-10;
2,20132554899002E-10;
2,58108492844016E-10;
2,12802766713561E-10;
6,76771515726878E-11;
-1,29301167721952E-10;
-2,92186742662921E-10;
-3,54950638205954E-10;
-3,07693727569189E-10;
-1,98522024588176E-10;
-1,00371935053303E-10;
-5,18607651210695E-11;
-4,09679778673889E-11;
-3,03731163715336E-11;
9,7424942801718E-12;
7,14952047656149E-11;
1,2184121008009E-10;
1,37066689845729E-10;
1,23790323884602E-10;
1,17597149817569E-10;
1,50186781523537E-10;
2,11815329378906E-10;
2,4917127109249E-10;
2,06826541365028E-10;
7,0339224812292E-11;
-1,16903766134848E-10;
-2,73358062222502E-10;
-3,3393847647605E-10;
-2,90754186459982E-10;
-1,90429630664206E-10;
-9,79426934226131E-11;
-5,21105719952705E-11;
-4,30937024469801E-11;
-3,25160172057196E-11;
5,45249969867343E-12;
6,43452937360745E-11;
1,12955755625005E-10;
1,26845095176328E-10;
1,15111435470326E-10;
1,11022562469013E-10;
1,42867434421337E-10;
2,0240506592746E-10;
2,38493873050789E-10;
1,99261789798292E-10;
7,21360564375659E-11;
-1,04948532938528E-10;
-2,543107922875E-10;
-3,12373286878344E-10;
-2,73365813987898E-10;
-1,80425291565563E-10;
-9,43135192744921E-11;
-5,1740083830301E-11;
-4,28032421781953E-11;
-3,29387621609116E-11;
1,99254887668688E-12;
5,73799012303007E-11;
1,03526547544334E-10;
1,17015430839755E-10;
1,06786155597578E-10;
1,03482518039963E-10;
1,33567713770757E-10;
1,90002480123558E-10;
2,25888219199295E-10;
1,90294490488685E-10;
7,07506065512877E-11;
-9,2884440780867E-11;
-2,31896471262759E-10;
-2,89330362062217E-10;
-2,54509463577744E-10;
-1,68679932538989E-10;
-9,02976069861207E-11;
-5,08586639311992E-11;
-4,3001046261101E-11;
-3,50167881181233E-11;
-1,00656909787662E-12;
5,09300429827963E-11;
9,40409837497494E-11;
1,08118435811813E-10;
9,76439218932296E-11;
9,54693726298764E-11;
1,25584305395801E-10;
1,77807575276724E-10;
2,11991926920416E-10;
1,8111700934671E-10;
7,06953159294915E-11;
-8,25927178645146E-11;
-2,13081658196924E-10;
-2,66921578919672E-10;
-2,34845129208691E-10;
-1,56616680986273E-10;
-8,44958672615264E-11;
-4,81807294693772E-11;
-4,19169512846899E-11;
-3,41628628387838E-11;
-3,96838645705364E-12;
4,30299308358034E-11;
8,38287091488764E-11;
9,74739180368104E-11;
8,96152378187093E-11;
8,82105062421945E-11;
1,15453747408297E-10;
1,6455217077276E-10;
1,97118520187627E-10;
1,69607788552579E-10;
6,89418120092929E-11;
-7,19949309706686E-11;
-1,91736323773877E-10;
-2,42685765369721E-10;
-2,16626350839178E-10;
-1,4507418015938E-10;
-8,00192939761265E-11;
-4,77647713685516E-11;
-4,03797803409617E-11;
-3,46279386627676E-11;
-6,32972048971192E-12;
3,86618535969561E-11;
7,49779207607389E-11;
8,75899045568496E-11;
8,0974605093537E-11;
8,06113320791182E-11;
1,05866845510628E-10;
1,50863155984652E-10;
1,82280522204226E-10;
1,57335254253592E-10;
6,61505384635494E-11;
-6,11563441079017E-11;
-1,72306410343146E-10;
-2,1997914049118E-10;
-1,96533127528973E-10;
-1,3338097310211E-10;
-7,37855867620756E-11;
-4,46136345737454E-11;
-3,9221672915963E-11;
-3,29921434926567E-11;
-8,32119655785584E-12;
3,22554966702719E-11;
6,68470552407704E-11;
7,8621086089102E-11;
7,28300639512191E-11;
7,2325148842102E-11;
9,60500682482812E-11;
1,37506617312604E-10;
1,66099248001188E-10;
1,45123213459911E-10;
6,33422675677917E-11;
-5,28761348980288E-11;
-1,53950203861634E-10;
-1,9709220325847E-10;
-1,77031630395254E-10;
-1,21164613104234E-10;
-6,76147814932443E-11;
-4,11385103441915E-11;
-3,7291705729787E-11;
-3,25087946645498E-11;
-9,19956832870811E-12;
2,74121348874258E-11;
5,84477428744799E-11;
6,96421522486007E-11;
6,47476441754155E-11;
6,509698885608E-11;
8,69987378249018E-11;
1,2504171052818E-10;
1,51600751667239E-10;
1,32848333910044E-10;
5,9701814005988E-11;
-4,41450380430192E-11;
-1,35371383072976E-10;
-1,75178322767551E-10;
-1,57746106684436E-10;
-1,08690306711339E-10;
-6,21629272225703E-11;
-3,86197373920529E-11;
-3,50394573316921E-11;
-3,13516986679325E-11;
-1,04326411894934E-11;
2,27799926122988E-11;
5,06256616752162E-11;
6,10294382741545E-11;
5,73541694480231E-11;
5,77952317790095E-11;
7,74400786615594E-11;
1,12369181444207E-10;
1,36595257854494E-10;
1,20673949799067E-10;
5,65393786579476E-11;
-3,63734211384642E-11;
-1,18109617914741E-10;
-1,54535296454501E-10;
-1,40554701347022E-10;
-9,74773918329897E-11;
-5,61714061389361E-11;
-3,55554504506041E-11;
-3,24842570304975E-11;
-2,85697392896342E-11;
-1,09986392298587E-11;
1,76512822116413E-11;
4,36273442084836E-11;
5,30005897361564E-11;
5,00490632932696E-11;
5,06175967845992E-11;
6,82353292082405E-11;
1,01251891702966E-10;
1,23327840654679E-10;
1,09187637565218E-10;
5,3514429278982E-11;
-2,87694384367924E-11;
-1,02043322903797E-10;
-1,35059895521421E-10;
-1,23418011334124E-10;
-8,64988877999948E-11;
-5,1393692229146E-11;
-3,32853055031596E-11;
-3,06440202789956E-11;
-2,76914049575482E-11;
-1,14425706417787E-11;
1,42878020605563E-11;
3,6793898093225E-11;
4,50782412465106E-11;
4,25049310213601E-11;
4,38681643524095E-11;
6,01850578367828E-11;
8,86629694097904E-11;
1,09577147249024E-10;
9,86004289473347E-11;
4,83986650508649E-11;
-2,32609989090516E-11;
-8,63519640701033E-11;
-1,16481145877717E-10;
-1,07589961729263E-10;
-7,51840334274753E-11;
-4,46879790339395E-11;
-3,05987790111259E-11;
-2,81176114405256E-11;
-2,45455085043205E-11;
-1,11386313336693E-11;
1,13232246130589E-11;
3,05962207859713E-11;
3,80138744466613E-11;
3,69545289032287E-11;
3,70440053296376E-11;
5,14328869155775E-11;
7,71568976414905E-11;
9,48394771054546E-11;
8,69574424333727E-11;
4,47306218092044E-11;
-1,81142899072871E-11;
-7,30639706492181E-11;
-9,93774623827925E-11;
-9,27970647527438E-11;
-6,54454564461431E-11;
-3,87228703301409E-11;
-2,71819020040045E-11;
-2,63577225828446E-11;
-2,38178289884869E-11;
-1,15893515192149E-11;
8,3618443556427E-12;
2,49509932131485E-11;
3,15215344314746E-11;
3,11799664684027E-11;
3,26626470330693E-11;
4,49985692286633E-11;
6,6418574880924E-11;
8,20300814186618E-11;
7,58096774061584E-11;
4,06172322791713E-11;
-1,24094076536289E-11;
-5,98889113413328E-11;
-8,38177180205091E-11;
-7,83035775570803E-11;
-5,5948256142506E-11;
-3,55980272413998E-11;
-2,47551422972208E-11;
-2,26231039199273E-11;
-2,08535907237299E-11;
-1,06118783852494E-11;
5,44092702306447E-12;
1,96463397628599E-11;
2,67551107914681E-11;
2,62954716694014E-11;
2,7149605236692E-11;
3,77694997640733E-11;
5,72300838092939E-11;
7,22021056206893E-11;
6,59139058238019E-11;
3,66940297717974E-11;
-7,78252368477732E-12;
-4,96388291667502E-11;
-6,95755217224694E-11;
-6,59796336449442E-11;
-4,75599694861591E-11;
-2,95784897834701E-11;
-2,1807953549833E-11;
-2,13312901838028E-11;
-1,99070934171465E-11;
-1,09907391909629E-11;
2,45613950486203E-12;
1,51860197328906E-11;
2,09145088120409E-11;
1,9455354017526E-11;
2,21709598257678E-11;
3,26434870500263E-11;
4,79813527167613E-11;
6,07417787706792E-11;
5,66854204383925E-11;
3,30357501515666E-11;
-3,38513860204071E-12;
-3,90325818831431E-11;
-5,62407518683055E-11;
-5,40813507110536E-11;
-4,12725762295876E-11;
-2,6224911555584E-11;
-1,92217323373845E-11;
-1,87652955293877E-11;
-1,61531687825517E-11;
-9,88198875960196E-12;
1,04251228983701E-13;
1,12904521346093E-11;
1,61660500066307E-11;
1,60718440275961E-11;
1,87517015703836E-11;
2,66824420067191E-11;
3,95991894522559E-11;
5,03718262499239E-11;
4,85993504719663E-11;
2,97105340044588E-11;
-1,41423523880772E-12;
-2,98360167830873E-11;
-4,4834877184718E-11;
-4,41405794288608E-11;
-3,29975120826688E-11;
-2,16159060356936E-11;
-1,66246752644769E-11;
-1,69157956265054E-11;
-1,56883924916372E-11;
-9,77431276411645E-12;
-3,46079727735895E-13;
7,73933697800892E-12;
1,14903420033272E-11;
1,26967706044637E-11;
1,46806203019749E-11;
2,16466924812447E-11;
3,25260969619618E-11;
4,1802570677011E-11;
4,06165342039776E-11;
2,54518643317485E-11;
1,85404154344795E-12;
-2,17107093714167E-11;
-3,41125603499414E-11;
-3,35008591331288E-11;
-2,5497659244754E-11;
-1,7011388476684E-11;
-1,46254370477697E-11;
-1,48631708393282E-11;
-1,3594634940734E-11;
-9,4267224245644E-12;
-1,46978944059582E-12;
4,71629556786373E-12;
7,31265723370678E-12;
9,03399498714457E-12;
1,08703180066714E-11;
1,64559229369719E-11;
2,57658386848652E-11;
3,32519784079003E-11;
3,37925611041494E-11;
2,25239205924204E-11;
3,05650875646364E-12;
-1,42117674682809E-11;
-2,44149519972613E-11;
-2,58458683786651E-11;
-2,01510248877284E-11;
-1,42889986754562E-11;
-1,23258834291212E-11;
-1,21416752618425E-11;
-1,16128918561714E-11;
-9,18431472986842E-12;
-3,39171289605425E-12;
2,16254109978137E-12;
4,60895548348905E-12;
6,16679849325441E-12;
8,18114038305887E-12;
1,25153856794468E-11;
2,00883576831291E-11;
2,65642441783556E-11;
2,72212981025893E-11;
1,9433874075336E-11;
5,92760440250837E-12;
-7,29397383833481E-12;
-1,62541659930987E-11;
-1,81131519339929E-11;
-1,51437493234644E-11;
-1,15620499663548E-11;
-9,66591863396317E-12;
-9,98831686410485E-12;
-9,68086377880831E-12;
-8,04968090600469E-12;
-4,79184964643426E-12;
-3,63180005045129E-13;
2,11822043453428E-12;
3,66721793465327E-12;
5,77767798617211E-12;
9,63351643331948E-12;
1,51204189270316E-11;
1,99686839240346E-11;
2,14804593308832E-11;
1,60117606036349E-11;
6,82966410276412E-12;
-2,38081247500741E-12;
-9,65774026313501E-12;
-1,22473487260336E-11;
-1,12944317585748E-11;
-9,11215462165836E-12;
-8,80930711111723E-12;
-8,81111320977597E-12;
-8,33310605879045E-12;
-7,9136048281829E-12;
-4,44961852480396E-12;
-9,28382199253974E-13;
9,45700285900028E-13;
2,02533910376489E-12;
2,80945713397942E-12;
6,0457003386641E-12;
1,0064884852044E-11;
1,40221526063241E-11;
1,63650963168407E-11;
1,4094720713842E-11;
8,75629851327614E-12;
1,69949140892757E-12;
-4,26415351750379E-12;
-6,04481122948703E-12;
-6,08255939193245E-12;
-6,59081058333095E-12;
-6,70891972935222E-12;
-7,46975532493235E-12;
-7,82133390954247E-12;
-6,46762418916815E-12;
-5,06514411425425E-12;
-3,44424757832865E-12;
-1,82618177844143E-12;
-8,75721194947148E-13;
5,06729487301565E-13;
3,39511755299279E-12;
6,43792079898774E-12;
9,18558631219318E-12;
1,16489564958949E-11;
1,15572004724407E-11;
9,07417714874048E-12;
5,5224114809075E-12;
1,69618899762468E-12;
-1,60359915158305E-12;
-3,16337492334782E-12;
-3,3848242945425E-12;
-4,43493289059577E-12;
-5,21744812851121E-12;
-6,09000623258375E-12;
-6,59841859338741E-12;
-5,36358136924289E-12;
-4,30621676447936E-12;
-3,0683703745605E-12;
-2,36547061726691E-12;
-1,2153811335962E-12;
1,54390568624237E-12;
3,56045273037479E-12;
5,50791924910023E-12;
7,12160070295085E-12;
8,78960584663168E-12;
9,72889718195354E-12;
8,11486737305024E-12;
6,26272344581478E-12;
3,47188388709474E-12;
2,72448757261472E-14;
-2,13580949157463E-12;
-3,50767001202046E-12;
-4,58272810411696E-12;
-5,78490671242587E-12;
-5,80709805936952E-12;
-5,79509556231263E-12;
-6,23417682668025E-12;
-4,35751626872954E-12;
-2,50810626576272E-12;
-2,02023529714638E-12;
-7,3440327609622E-13;
9,72630369912602E-14;
1,08763982428323E-12;
3,74731378633548E-12;
6,66652522045055E-12;
9,77892534639176E-12;
1,14796713706968E-11;
9,68730604425667E-12;
5,68484063159431E-12;
1,41072061266211E-12;
-1,21669684673176E-12;
-2,56109320264173E-12;
-3,29877842080624E-12;
-3,79246638196817E-12;
-4,85055465285794E-12;
-5,48113449854116E-12;
-6,13190084802895E-12;
-5,81377502258801E-12;
-4,48391145490605E-12;
-3,36302455731564E-12;
-2,16697219856186E-12;
-2,16378116350223E-12;
-1,15160174923556E-12;
1,57629383865878E-12;
5,23999410472943E-12;
0,00933343405647163;
0,022629729838679;
0,0163727372886723;
0,00943309618585054;
0,012169391790147;
0,0070261673318555;
0,00563481712767195;
0,0045827100507182;
0,000840500087142337;
0,00103239236734741;
-0,00119043950099934;
-0,00199195266374686;
-0,00280713694152807;
-0,0045536813249503;
-0,00488732500329281;
-0,00585590071242885;
-0,0059412172777252;
-0,00618248832682229;
-0,00699357666968478;
-0,00792070354409553;
-0,0093488879841522;
-0,0102428886968618;
-0,010518499379628;
-0,0101085231318763;
-0,00920766466150446;
-0,00843029680064586;
-0,00783043416895982;
-0,00745747149903223;
-0,00704805328139521;
-0,00641867707242573;
-0,015008887684385;
-0,0275882171046801;
-0,0208258186974348;
-0,013523863594623;
-0,0158332176587477;
-0,0100527347734728;
-0,0078630496802834;
-0,00615553913321744;
-0,00220157655330014;
-0,00269763794383075;
-0,00103528591680029;
-0,000595109100307109;
0,000400374630133078;
0,00289649661696573;
0,0042625909915582;
0,00617257040871696;
0,00690488079625192;
0,0075583571907022;
0,0087587084151878;
0,0101991654755669;
0,0122225998247328;
0,0136210977562659;
0,0141834416614747;
0,0138929487281276;
0,0131324122978587;
0,012663744858284;
0,0124845373085919;
0,0123866009744333;
0,0118334493893231;
0,0105807329780774;
0,00897384775803625;
0,00755969222489911;
0,00683712819026456;
0,0067621018969204;
0,00687299650694454;
0,0066919629988864;
0,00608700081238385;
0,00541877372144408;
0,00517838148273187;
0,00557143444585396;
0,00630211472381357;
0,0067616817227364;
0,00649591047680743;
0,00552312322089548;
0,00429868478442755;
0,00332884965207528;
0,00276722022896466;
0,00232538738089823;
0,00154881718451852;
0,000237092907663787;
-0,00135414745408964;
-0,00269012025370098;
-0,00336502075020399;
-0,00340792924134838;
-0,00323271261716626;
-0,00328201567636336;
-0,00366034787563433;
-0,00405994599411737;
-0,00403909146642624;
-0,00341912007435175;
-0,00247185820268094;
-0,00174029006234257;
-0,00163727131229426;
-0,00214695773114663;
-0,0028665288216541;
-0,00334747676034221;
-0,00345321577414588;
-0,00344308425380243;
-0,0037221853657226;
-0,00447136982360615;
-0,0054665717400778;
-0,00623589389907406;
-0,00642276535678329;
-0,00605520161309792;
-0,00550179771541955;
-0,00515527491903984;
-0,00510798790161834;
-0,00508756906475749;
-0,0047037887455929;
-0,00380043426375294;
-0,00262023773880123;
-0,00164540535045016;
-0,00124231553496533;
-0,00139757506272338;
-0,00175543336996851;
-0,00191946982869613;
-0,0017684100109921;
-0,00153021562499662;
-0,00156152852961111;
-0,00202186673257614;
-0,00271477515746064;
-0,00322620760067071;
-0,00324368857484548;
-0,00279236974903046;
-0,00219568198503178;
-0,00179715966929774;
-0,00167606876354663;
-0,00159190015428367;
-0,00120172218492562;
-0,00036883799838281;
0,000693279561385718;
0,00156158326938652;
0,00191517261623372;
0,00176632934002647;
0,00142737536475017;
0,00124642305301518;
0,00133114144030224;
0,0014840336840595;
0,00139498765140686;
0,000925394485187261;
0,000246419217022709;
-0,000281701727832436;
-0,000387377551018119;
-9,2522179344134E-5;
0,000322329846736065;
0,00056012398149322;
0,0005539712156878;
0,000514451632663266;
0,000740110484423349;
0,00134944823020058;
0,0021566329098801;
0,00279426024407137;
0,00298408678346755;
0,00273718462634776;
0,0023248655061036;
0,00204959665518115;
0,00200589740642277;
0,00202439082341032;
0,00183812503609242;
0,00132769155164014;
0,00064027655189397;
8,55103777992821E-5;
-0,000103536995948276;
5,38618081029018E-5;
0,000316732584989969;
0,000430801297209814;
0,000340069712934098;
0,000226574551011802;
0,000346940749901059;
0,000802273742462183;
0,00143211347616266;
0,00192048747354431;
0,00202841938154149;
0,00176534415272216;
0,00136386267192355;
0,00108341159227427;
0,00100569982932577;
0,000986912146524381;
0,000799667354252534;
0,00034194594854183;
-0,000261665412769859;
-0,000748759324716342;
-0,000922248367025066;
-0,000799266078341839;
-0,000584522575802027;
-0,000493126125533704;
-0,000571455865310149;
-0,000664290394536398;
-0,000554076842267499;
-0,000155983655724635;
0,000392854804489061;
0,000823870185082343;
0,000934208319088287;
0,000731609387845279;
0,000412736510648475;
0,000197104425267232;
0,000154387039035054;
0,000164134431600597;
3,52820072849643E-5;
-0,000318239295217593;
-0,000792628641715566;
-0,00116885436014112;
-0,00128283565788459;
-0,00114968886703883;
-0,000940815030334545;
-0,000835421458799758;
-0,000871147622823504;
-0,000917434933776777;
-0,000792543148800247;
-0,000426438983550373;
6,53129601571024E-5;
0,000457778911237161;
0,000581352096909769;
0,000442324934648925;
0,000204522727652024;
5,09635942346476E-5;
4,03424449075696E-5;
7,3619462685482E-5;
-6,99211339800956E-6;
-0,000272846765736048;
-0,000638924687084969;
-0,000925550690769272;
-0,000998525262271397;
-0,000870935231116941;
-0,000683696229809723;
-0,000583246211869287;
-0,000599238725807415;
-0,000623523687438811;
-0,000506844982284708;
-0,00019244915948629;
0,000223945143688232;
0,000557300683376567;
0,000668410067510093;
0,000562374906955063;
0,00037327059191767;
0,000251020327555573;
0,000244378975360881;
0,000273758059553163;
0,000211603970268086;
2,69464504149778E-9;
-0,000292891729600504;
-0,000522869874808476;
-0,000582616047785563;
-0,000483263977030814;
-0,000338110446603927;
-0,000263985102287597;
-0,000283371556272054;
-0,000308391161586508;
-0,000219094719072542;
2,93717650609429E-5;
0,000359320648460867;
0,000621819436501764;
0,000705150492306529;
0,00061337017337468;
0,000453730588523426;
0,000346295809184849;
0,000330802685194402;
0,000345102118379944;
0,000288798244461965;
0,000116068718856135;
-0,000120037968908806;
-0,00030709495790413;
-0,000361858495082024;
-0,000293685867587496;
-0,000191135615668965;
-0,0001445814875019;
-0,000170198873466354;
-0,00019837107848472;
-0,000135443046358335;
5,27990502505112E-5;
0,000304853701301124;
0,000504136592588192;
0,000563530878600052;
0,000486132671897871;
0,000355159455432308;
0,000263909875657421;
0,000243961051667755;
0,000248626550036088;
0,000201665049812329;
6,80099599654363E-5;
-0,000112732551640218;
-0,000256401559489664;
-0,000301147107104815;
-0,000254744418521745;
-0,000183799985344754;
-0,000155266268705507;
-0,000179832697615538;
-0,000204205423924307;
-0,000158126398695487;
-1,68168741633412E-5;
0,000172629242016346;
0,000322366660064259;
0,000367111800742691;
0,000309094671866774;
0,000210190735989696;
0,000139921731158738;
0,000122554414205089;
0,000125001365490973;
9,23292959920669E-5;
-1,0278493619354E-6;
-0,000127299796902048;
-0,000227218817874532;
-0,000257757016935922;
-0,000225272038736967;
-0,00017704585301719;
-0,000159465105132965;
-0,00017847658424862;
-0,000195225558081064;
-0,000160063327935237;
-5,64771367623854E-5;
8,11736803001874E-5;
0,000190370849507459;
0,000225057055780774;
0,000186713013761806;
0,000118459588741734;
6,89108875022109E-5;
5,58628727641116E-5;
5,80927885862556E-5;
3,93066303295536E-5;
-1,77273284865597E-5;
-9,55376481233596E-5;
-0,000156546563783572;
-0,000174104627485128;
-0,000153292445231106;
-0,000124529350469292;
-0,000116307232024267;
-0,000130505063885001;
-0,000140906676465878;
-0,000115827630995153;
-4,59107170144108E-5;
4,56461061831843E-5;
0,000118440170998184;
0,000143190718204793;
0,000120747697649022;
7,79232489768415E-5;
4,51353713162827E-5;
3,45116627462405E-5;
3,50758288334525E-5;
2,6674208378551E-5;
-6,83331100584036E-7;
-3,8385409076046E-5;
-6,7547067645127E-5;
-7,56139391665234E-5;
-6,65255917788157E-5;
-5,6143812013955E-5;
-5,75612044451999E-5;
-6,9213876814099E-5;
-7,58361594744945E-5;
-6,12367016781532E-5;
-2,2184346785621E-5;
2,78020706828827E-5;
6,74233782021762E-5;
8,18780712857867E-5;
7,14894092189246E-5;
4,90393047798158E-5;
2,92772019553874E-5;
1,94100998585653E-5;
1,7199218515411E-5;
1,62997708920374E-5;
1,29375626692228E-5;
8,19011078794906E-6;
5,02219722218014E-6;
4,00145366823246E-6;
2,19201843345152E-6;
-3,85735832542534E-6;
-1,41583695637171E-5;
-2,42837843542371E-5;
-2,83536201891265E-5;
-2,33836582564912E-5;
-1,13251514585929E-5;
2,59488066900319E-6;
1,33768892744236E-5;
1,85603689982712E-5;
1,80311131747507E-5;
1,26456303644064E-5;
3,8218160503298E-6;
-5,46214200563991E-6;
-1,01021573313365E-5;
-4,79035267104174E-6;
1,19620410887637E-5;
3,4913528935659E-5;
5,36558804354866E-5;
5,87043846634838E-5;
4,79937752318766E-5;
2,85032806041779E-5;
1,11692370728913E-5;
2,75295710168877E-6;
1,1918595256258E-6;
-1,63474042972912E-6;
-1,1997743154214E-5;
-2,81154305690547E-5;
-4,12720885088528E-5;
-4,35567814210959E-5;
-3,54410563785878E-5;
-2,60600758739585E-5;
-2,51789140645713E-5;
-3,34083533658683E-5;
-3,95753294952606E-5;
-2,86928698255573E-5;
5,11703295196138E-6;
5,14025635385785E-5;
8,87086404120354E-5;
9,92636154882612E-5;
8,17497115750954E-5;
5,1769287913506E-5;
2,92640517194564E-5;
2,28537739182133E-5;
2,38574810568104E-5;
1,49713425268907E-5;
-1,36090332691867E-5;
-5,42670454771404E-5;
-8,6931819614635E-5;
-9,5118046101873E-5;
-7,95806469653151E-5;
-5,76814389175443E-5;
-4,84063040142857E-5;
-5,53656153360239E-5;
-6,24696881545489E-5;
-4,6842778205227E-5;
9,89163240776054E-7;
6,63691530181128E-5;
0,000118904112096359;
0,000134135061186475;
0,000111379802230381;
7,32280573139158E-5;
4,68721567710701E-5;
4,23668811885045E-5;
4,5618589873318E-5;
3,18833968544116E-5;
-1,14657974124151E-5;
-7,20430246886778E-5;
-0,000120560753380724;
-0,000133586447522373;
-0,000112091296388165;
-8,00661797778386E-5;
-6,39407536029782E-5;
-6,97871009260433E-5;
-7,76336808795069E-5;
-5,83279964990248E-5;
4,846491804495E-7;
8,08449397426117E-5;
0,000145317108523275;
0,000164191447863019;
0,000137319325834001;
9,28081384493062E-5;
6,35274935385043E-5;
6,05922047723747E-5;
6,55837675030676E-5;
4,78852703319204E-5;
-7,31691405117491E-6;
-8,38281172670663E-5;
-0,000145067578985388;
-0,000162118302401686;
-0,000136108752398313;
-9,6225890655823E-5;
-7,47480299107104E-5;
-7,97231577258339E-5;
-8,82204105525035E-5;
-6,62511717101496E-5;
7,78812580974836E-7;
9,24108846714137E-5;
0,000165854693762369;
0,000187428256270315;
0,000157423371044732;
0,000108154846395919;
7,67699733510826E-5;
7,5113760704179E-5;
8,14154354062689E-5;
6,05813926312395E-5;
-3,82460178983583E-6;
-9,26587330506449E-5;
-0,00016376313371553;
-0,000184040943970265;
-0,00015472709767055;
-0,000108930634892394;
-8,33591218927417E-5;
-8,76015426560966E-5;
-9,65831891796845E-5;
-7,27558699492035E-5;
1,44371112379587E-7;
9,98671690610525E-5;
0,00017975776629935;
0,00020328947618795;
0,000171110230683452;
0,00011858445921959;
8,59032856066118E-5;
8,53547130202794E-5;
9,26779011935248E-5;
6,95359860305588E-5;
-1,63434826087666E-6;
-9,95023860711762E-5;
-0,000177850694333507;
-0,000200555663019302;
-0,000168915280702883;
-0,000118837933520809;
-9,02083461494824E-5;
-9,37701420027932E-5;
-0,000103018502681703;
-7,79660638804939E-5;
-1,18082196663404E-6;
0,000103913058861362;
0,000188099705558865;
0,000212993081086577;
0,000179521989846134;
0,000125087459188218;
9,18475285265106E-5;
9,22861891574936E-5;
0,000100410203213335;
7,57190411083796E-5;
-4,62015330012443E-8;
-0,000104037301418883;
-0,000187306303170836;
-0,000211712212861253;
-0,000178579212525194;
-0,000125634894531253;
-9,4846946770218E-5;
-9,777320544268E-5;
-0,000107096701196658;
-8,13641595829403E-5;
-2,4126163199453E-6;
0,000105694018157427;
0,000192306970517157;
0,000218033141985017;
0,000184015788137677;
0,000128815539297191;
9,56275388222516E-5;
9,69220796080171E-5;
0,000105632873944973;
8,00310620656729E-5;
1,53391486224424E-6;
-0,000106074708452432;
-0,000192268296043747;
-0,000217762865829859;
-0,000183877947179733;
-0,000129313741558662;
-9,71746626562811E-5;
-9,95356991709508E-5;
-0,000108796567167842;
-8,28740863224098E-5;
-3,25110330099814E-6;
0,000105824837189752;
0,000193237370390429;
0,000219314866057799;
0,000185356966328787;
0,000130333396844614;
9,76831163806456E-5;
9,96872589048742E-5;
0,000108773888868228;
8,27868007087611E-5;
3,13578072313802E-6;
-0,000105959954546304;
-0,000193382489891344;
-0,000219453741842928;
-0,000185463335738547;
-0,000130361614832127;
-9,7581148963727E-5;
-9,94576922978669E-5;
-0,000108554319713342;
-8,28670746484564E-5;
-3,84553059023501E-6;
0,000104463290974991;
0,000191290318725167;
0,000217299705653847;
0,000183897148718649;
0,000129827628120566;
9,8106292550623E-5;
0,000100680733099257;
0,000109955533375257;
8,40240010357081E-5;
4,55373387740895E-6;
-0,000104225494170487;
-0,000191439361904208;
-0,000217648737739604;
-0,000184093227339843;
-0,0001293652870623;
-9,65440418399537E-5;
-9,80074477888384E-5;
-0,000106853418707428;
-8,17499236333826E-5;
-4,38282769495447E-6;
0,000101719705039208;
0,000186813032431291;
0,000212406886011539;
0,000179969862024976;
0,000127495149259312;
9,70212902979997E-5;
0,000100046040245768;
0,000109354333389759;
8,38521486240933E-5;
5,6836156061234E-6;
-0,000101266405664879;
-0,000187062732860444;
-0,000213032136664711;
-0,000180348657075023;
-0,000126743420030508;
-9,43766655970684E-5;
-9,54847817758424E-5;
-0,00010400367104686;
-7,97598806796676E-5;
-4,89822325448651E-6;
9,78306488652992E-5;
0,000180258581336297;
0,000205155812838806;
0,000174017336780537;
0,000123654540866682;
9,46807033785936E-5;
9,80526904069389E-5;
0,000107268214111336;
8,25057840577848E-5;
6,56267061016665E-6;
-9,73134661841979E-5;
-0,000180695301623376;
-0,000206105973818813;
-0,000174642446863093;
-0,000122765867686877;
-9,12575316157564E-5;
-9,20602650485851E-5;
-0,000100189498115242;
-7,70211573608265E-5;
-5,33913451608481E-6;
9,30884067184558E-5;
0,000172109194321942;
0,000196083512521582;
0,000166502336610718;
0,000118652711050697;
9,13676779990334E-5;
9,4994608425341E-5;
0,000104011886449686;
8,02373040060713E-5;
7,26006070625469E-6;
-9,25445209770142E-5;
-0,000172711293429772;
-0,000197303218097532;
-0,00016733217782683;
-0,000117665950018313;
-8,73416836054324E-5;
-8,78854385521286E-5;
-9,55786427978394E-5;
-7,36514998615274E-5;
-5,66889598369448E-6;
8,77406029543058E-5;
0,000162779336469158;
0,000185650894564382;
0,000157817349591979;
0,0001127770198026;
8,73112940625404E-5;
9,11092497746416E-5;
9,98399286772023E-5;
7,72439000972338E-5;
7,80741943307343E-6;
-8,71504544353492E-5;
-0,000163478734419166;
-0,000187045840664072;
-0,000158773616183614;
-0,000111689104416703;
-8,28048090807675E-5;
-8,31327220713263E-5;
-9,03579453269235E-5;
-6,97935377658848E-5;
-5,89322718866555E-6;
8,19687795746486E-5;
0,000152598973342952;
0,000174229992484877;
0,000148275078843894;
0,000106248655127005;
8,26829091350655E-5;
8,65771102934583E-5;
9,49494282850521E-5;
7,36729107516533E-5;
8,20625926580567E-6;
-8,13261465108974E-5;
-0,00015334870328723;
-0,00017573193352662;
-0,000149305277127083;
-0,000105074907157477;
-7,78231541191736E-5;
-7,7973730422477E-5;
-8,47102699113257E-5;
-6,5590063684655E-5;
-6,03344534998503E-6;
7,59174007146618E-5;
0,000141844399909263;
0,000162135728518962;
0,000138140266367765;
9,92541359924061E-5;
7,76274584553692E-5;
8,15531058882897E-5;
8,95114469987751E-5;
6,96528756751692E-5;
8,45793370594604E-6;
-7,52420044225431E-5;
-0,000142628198907744;
-0,000163709296389356;
-0,000139222167327443;
-9,8030827946692E-5;
-7,25476330787926E-5;
-7,25542432199501E-5;
-7,87904556476477E-5;
-6,11605753696941E-5;
-6,10297914752096E-6;
6,97176781532493E-5;
0,000130762038293613;
0,000149648866127379;
0,000127651023011611;
9,19647078351922E-5;
7,22811857175595E-5;
7,61830914341078E-5;
8,36864269063294E-5;
6,53074284966543E-5;
8,57537235721698E-6;
-6,90347346013366E-5;
-0,000131573105812958;
-0,000151269796059851;
-0,000128770739801775;
-9,07275240172668E-5;
-6,70997693237891E-5;
-6,69911904818737E-5;
-7,27234066506631E-5;
-5,6599962101947E-5;
-6,1059002780642E-6;
6,34896037727973E-5;
0,000119570764739395;
0,000137017806333113;
0,000117019322550402;
8,45353013844511E-5;
6,67694137391034E-5;
7,06009672701561E-5;
7,76207845921867E-5;
6,07509736199455E-5;
8,57719345099827E-6;
-6,28151057713729E-5;
-0,000120397470207263;
-0,000138659280839386;
-0,000118158608649537;
-8,3308037549794E-5;
-6,15806556875356E-5;
-6,13818286302713E-5;
-6,66135146509949E-5;
-5,19876446808803E-5;
-6,04501460657379E-6;
5,7335313254818E-5;
0,000108456433750179;
0,000124453457922381;
0,000106425374967313;
7,70981485672368E-5;
6,11997591743235E-5;
6,49220040594588E-5;
7,14404956759672E-5;
5,60820662110224E-5;
8,48017839582491E-6;
-5,66767584063146E-5;
-0,000109283253477003;
-0,000126087358563112;
-0,000107563519769824;
-7,58956772298614E-5;
-5,607803835517E-5;
-5,58105213739131E-5;
-6,05512484971674E-5;
-4,73934607880323E-5;
-5,92629472390468E-6;
5,1336511990492E-5;
9,75708270461158E-5;
0,000112128797126292;
9,60169667306791E-5;
6,97616090779404E-5;
5,5660766381649E-5;
5,92417785917903E-5;
6,52504243269134E-5;
5,1382656768862E-5;
8,29765742011455E-6;
-5,06990593783876E-5;
-9,83840942495985E-5;
-0,000113731232084734;
-9,71363761733066E-5;
-6,85959462145518E-5;
-5,06675359410325E-5;
-5,03497360656781E-5;
-5,4614020068767E-5;
-4,28779446892212E-5;
-5,7578370935514E-6;
4,55572246959351E-5;
8,70357659636977E-5;
0,000100183453211225;
8,59136375798463E-5;
6,26136402804159E-5;
5,02249926903107E-5;
5,3639363571105E-5;
5,9137704161134E-5;
4,67211408860646E-5;
8,04148916083165E-6;
-4,49466127345651E-5;
-8,78259890780728E-5;
-0,000101736634729423;
-8,70016198500544E-5;
-6,14960968583816E-5;
-4,54116622835942E-5;
-4,50590644020451E-5;
-4,88653364658307E-5;
-3,84911111025778E-5;
-5,54754755051524E-6;
4,00475811147952E-5;
7,69480265724358E-5;
8,87288740075126E-5;
7,62112767368601E-5;
5,57255341865838E-5;
4,49522008860323E-5;
4,81804639356478E-5;
5,31749005428349E-5;
4,21550574521339E-5;
7,72354696698697E-6;
-3,94693665341201E-5;
-7,77086648546634E-5;
-9,02196215998964E-5;
-7,72585755142362E-5;
-5,46657311540469E-5;
-4,03600254952632E-5;
-3,99854930914118E-5;
-4,33552440670113E-5;
-3,42726189634226E-5;
-5,30230885654324E-6;
3,48460273772173E-5;
6,73826260191525E-5;
7,78518485074272E-5;
6,69850513329829E-5;
4,91539922562969E-5;
3,98909029338046E-5;
4,29188931720864E-5;
4,74215284497198E-5;
3,77321623447995E-5;
7,35562696697042E-6;
-3,43042527719819E-5;
-6,81084459439816E-5;
-7,92697876432937E-5;
-6,79842176494555E-5;
-4,81588319930037E-5;
-3,55509063573258E-5;
-3,51650109827791E-5;
-3,81220662520846E-5;
-3,02531803823741E-5;
-5,02837282202164E-6;
2,99803216082129E-5;
5,83948965365737E-5;
6,76168489649252E-5;
5,82912568269422E-5;
4,29422171000677E-5;
3,50790126667136E-5;
3,78972513324091E-5;
4,19248133869262E-5;
3,34908172275744E-5;
6,9487689934272E-6;
-2,9477296108375E-5;
-5,90814761711957E-5;
-6,8953797639292E-5;
-5,92361951868154E-5;
-4,20160089261249E-5;
-3,10130344207634E-5;
-3,06243520091936E-5;
-3,31942180476881E-5;
-2,64560225334038E-5;
-4,73180870361489E-6;
2,54684434599299E-5;
5,00224752824698E-5;
5,80683273066875E-5;
5,01691784490804E-5;
3,71211148858091E-5;
3,05446581800203E-5;
3,31477712195385E-5;
3,67206747783716E-5;
2,94606458531056E-5;
6,51292093871469E-6;
-2,50052831879165E-5;
-5,06664403669011E-5;
-5,93183806768822E-5;
-5,10553535181901E-5;
-3,62662709042134E-5;
-2,67668786874441E-5;
-2,63822458420063E-5;
-2,85915148132826E-5;
-2,28978589416703E-5;
-4,41851535196965E-6;
2,13198784540779E-5;
4,22876009752886E-5;
4,92333018626455E-5;
4,26432664419925E-5;
3,17108196001132E-5;
2,63073617141701E-5;
2,86935543501056E-5;
3,18350623516009E-5;
2,56635572874976E-5;
6,05701030922313E-6;
-2,08969856101796E-5;
-4,2886792703394E-5;
-5,03928189426785E-5;
-4,34677811814643E-5;
-3,09283916923856E-5;
-2,28255801477439E-5;
-2,24503226207879E-5;
-2,43261583703851E-5;
-1,95895703701425E-5;
-4,09401762198965E-6;
1,75370036747364E-5;
3,51994388482847E-5;
4,1123942389966E-5;
3,57253382648666E-5;
2,67222990885779E-5;
2,23792831643435E-5;
2,45498423978858E-5;
2,72853251298484E-5;
2,21147925935324E-5;
5,58909200004684E-6;
-1,71542153080577E-5;
-3,57527827172527E-5;
-4,2191253209257E-5;
-3,64867109403935E-5;
-2,60121765729286E-5;
-1,91958341214863E-5;
-1,88339817433807E-5;
-2,04036690179913E-5;
-1,65368662201627E-5;
-3,76333049211342E-6;
1,41163286126767E-5;
2,87561855765175E-5;
3,37398990455048E-5;
2,94165363867891E-5;
2,21587439534576E-5;
1,87662945467085E-5;
2,07251221872061E-5;
2,30813929192326E-5;
1,88238268102574E-5;
5,11639929928423E-6;
-1,37729204904356E-5;
-2,92634254791674E-5;
-3,47149119114799E-5;
-3,01144032393778E-5;
-2,15197533889362E-5;
-1,58788079773035E-5;
-1,55332914895173E-5;
-1,68238703409104E-5;
-1,37410264152766E-5;
-3,43094215418123E-6;
1,10495118120775E-5;
2,29468814548385E-5;
2,7070348713766E-5;
2,37090392636165E-5;
1,80167759341102E-5;
1,54689015179623E-5;
1,72220679055083E-5;
1,92268040228275E-5;
1,57951211541576E-5;
4,6453231150488E-6;
-1,07442377106214E-5;
-2,3408398732892E-5;
-2,79542402679322E-5;
-2,43439277023825E-5;
-1,74468220522464E-5;
-1,28710555365244E-5;
-1,25438910740688E-5;
-1,35818418522783E-5;
-1,11996203179612E-5;
-3,10086037543725E-6;
8,32425325823207E-6;
1,77530369296611E-5;
2,10958166078017E-5;
1,85875914620783E-5;
1,42875110166097E-5;
1,24830506971932E-5;
1,40384018471854E-5;
1,57196406221271E-5;
1,30288228439727E-5;
4,18140434138727E-6;
-8,05546146757257E-6;
-1,81697562924049E-5;
-2,1890830158595E-5;
-1,91607856364977E-5;
-1,37837807471E-5;
-1,0165327577484E-5;
-9,85776996581529E-6;
-1,06687607243914E-5;
-8,90714502489978E-6;
-2,77662220021146E-6;
5,9251232165199E-6;
1,3150126015617E-5;
1,57898661800272E-5;
1,40309263791665E-5;
1,09575765723144E-5;
9,8009152222485E-6;
1,11677052592027E-5;
1,2553421443E-5;
1,0521433918405E-5;
3,72936063503522E-6;
-5,69087413475444E-6;
-1,35234400688747E-5;
-1,64991280021116E-5;
-1,45443575501175E-5;
-1,0516726965393E-5;
-7,75128616949472E-6;
-7,46396968135771E-6;
-8,07264395722083E-6;
-6,85557425465642E-6;
-2,46129565720102E-6;
3,83431420608561E-6;
9,10894577335709E-6;
1,11206299180224E-5;
1,00130596180618E-5;
8,01003372109746E-6;
7,41162244508835E-6;
8,60018719785617E-6;
9,71792948945841E-6;
8,26645302756083E-6;
3,29315084569641E-6;
-3,63246677901698E-6;
-9,44062852344162E-6;
-1,17479742174927E-5;
-1,04691760812993E-5;
-7,62833094815079E-6;
-5,61613831051043E-6;
-5,34919342209678E-6;
-5,77901284212334E-6;
-5,03486682920747E-6;
-2,15748087220077E-6;
2,03231538592501E-6;
5,59681597976621E-6;
7,05216106448628E-6;
6,50443691789954E-6;
5,42520962529885E-6;
5,30190287544121E-6;
6,32336150758892E-6;
7,19995743724413E-6;
6,25494181651282E-6;
2,87602172411719E-6;
-1,86059376766757E-6;
-5,88893781040927E-6;
-7,60196091772504E-6;
-6,90609579948362E-6;
-5,09864527135697E-6;
-3,74519918890587E-6;
-3,49836994543938E-6;
-3,7714871634958E-6;
-3,43341025642801E-6;
-1,86733258609252E-6;
4,98491996533535E-7;
2,57863617168409E-6;
3,54563490547904E-6;
3,47295211921425E-6;
3,18141722533291E-6;
3,45666745794948E-6;
4,32266468599421E-6;
4,98397279228324E-6;
4,47602993440254E-6;
2,48055724377761E-6;
-3,54530141661707E-7;
-2,83347986377731E-6;
-4,02264099927053E-6;
-3,82329461063482E-6;
-2,90581435346614E-6;
-2,12241616723148E-6;
-1,89514104680945E-6;
-2,03231960526087E-6;
-2,03843130040553E-6;
-1,59257857697541E-6;
-7,8842269918643E-7;
1,77968158705619E-8;
5,60375123401683E-7;
8,84817666850664E-7;
1,25559522215787E-6;
1,85950385300498E-6;
2,58198252382913E-6;
3,05270410250738E-6;
2,91737186994468E-6;
2,10873037715245E-6;
9,07024206254646E-7;
-2,37790478680323E-7;
-9,69596278904349E-7;
-1,18719097099282E-6;
-1,02669092464688E-6;
-7,30807754851417E-7;
-5,22302490908765E-7;
-5,42859610428333E-7;
-8,36357249103608E-7;
-1,33455146533961E-6;
-1,84989843304064E-6;
-2,12303664272602E-6;
-1,94524749220374E-6;
-1,2946741524826E-6;
-3,76143717419155E-7;
4,93132276186514E-7;
1,08412732562141E-6;
1,38765510449784E-6;
1,56554620948057E-6;
1,76195765923303E-6;
1,94553437640209E-6;
1,93537202929566E-6;
1,5986597436427E-6;
1,036797199953E-6;
5,62613075114349E-7;
4,47140927996026E-7;
6,37818095705706E-7;
7,1603819773037E-7;
1,86875322250308E-7;
-1,09422115308366E-6;
-2,7072557853395E-6;
-3,88125721568125E-6;
-4,01305640700158E-6;
-3,10049373298444E-6;
-1,73803520625507E-6;
-6,60222029337802E-7;
-1,88750855532879E-7;
-3,04386251837252E-8;
4,06412222767047E-7;
1,44115056024136E-6;
2,78227374238911E-6;
3,72335982878577E-6;
3,72390048442656E-6;
2,88358204804995E-6;
1,88626899087016E-6;
1,42914363637827E-6;
1,60304069723542E-6;
1,76367166215724E-6;
1,04554879640706E-6;
-8,72221315392588E-7;
-3,38136637786946E-6;
-5,29375405177382E-6;
-5,68442384693484E-6;
-4,56733022256261E-6;
-2,8542601382807E-6;
-1,61849444772888E-6;
-1,25480736551684E-6;
-1,22121604517872E-6;
-5,74587917177877E-7;
1,14677322737061E-6;
3,43804166444561E-6;
5,16305842106348E-6;
5,4475289976408E-6;
4,38785074999977E-6;
2,96834153076844E-6;
2,23283979879577E-6;
2,39106055926989E-6;
2,619197783868E-6;
1,75393966395118E-6;
-6,68881975796944E-7;
-3,89241100231969E-6;
-6,39645524588223E-6;
-6,99974744496078E-6;
-5,72913338649077E-6;
-3,74860466735866E-6;
-2,39949409240143E-6;
-2,13219292735261E-6;
-2,20435531751592E-6;
-1,39215303945039E-6;
8,78893987027041E-7;
3,93292337602911E-6;
6,29043340533923E-6;
6,81004105300043E-6;
5,5836003583207E-6;
3,8324575582468E-6;
2,87554805016679E-6;
3,0192227399084E-6;
3,30139001252284E-6;
2,3261198708553E-6;
-4,8426198515472E-7;
-4,25968998263596E-6;
-7,22395362017603E-6;
-7,9980132069771E-6;
-6,61873902905494E-6;
-4,44418234993216E-6;
-3,02067866487975E-6;
-2,83880699330237E-6;
-2,99929899689883E-6;
-2,06090820027813E-6;
6,37241441018934E-7;
4,28610549600821E-6;
7,14013478762799E-6;
7,85057629793543E-6;
6,50375833660343E-6;
4,50154153678433E-6;
3,37408013726876E-6;
3,50433214033751E-6;
3,82843808799181E-6;
2,77580046802646E-6;
-3,18186456716148E-7;
-4,50148016508687E-6;
-7,80921768023482E-6;
-8,71646252259809E-6;
-7,26758312014076E-6;
-4,96322017465756E-6;
-3,49896274990859E-6;
-3,39207850102179E-6;
-3,62500882291679E-6;
-2,59520781138143E-6;
4,21245298290799E-7;
4,51573938264709E-6;
7,7452254983862E-6;
8,60657358234882E-6;
7,17987728815139E-6;
4,99760038712109E-6;
3,74458068943635E-6;
3,86250728630246E-6;
4,21778503967954E-6;
3,11620153021336E-6;
-1,70265903973055E-7;
-4,63492448242681E-6;
-8,18337188351512E-6;
-9,1903320717134E-6;
-7,70546739040584E-6;
-5,32686917676646E-6;
-3,85056221025294E-6;
-3,80880508830291E-6;
-4,09979134705008E-6;
-3,00899096990556E-6;
2,30089548417492E-7;
4,63883183732141E-6;
8,13693364871915E-6;
9,11350395962306E-6;
7,64190608274986E-6;
5,34155487676215E-6;
4,00240949166043E-6;
4,10906183388799E-6;
4,48600849251621E-6;
3,35994746922451E-6;
-3,99433955124518E-8;
-4,67596569686666E-6;
-8,3755456597253E-6;
-9,45267013000981E-6;
-7,96039562155638E-6;
-5,55508820837355E-6;
-4,09088277116951E-6;
-4,10501051927572E-6;
-4,44113105590114E-6;
-3,31564168130797E-6;
6,27553104484332E-8;
4,67118563439364E-6;
8,34450867389279E-6;
9,40467124002464E-6;
7,91801663426081E-6;
5,55311836865841E-6;
4,16204755488192E-6;
4,25842267381122E-6;
4,64872440395362E-6;
3,51898885882895E-6;
7,34927948044333E-8;
-4,63929771087071E-6;
-8,41276843702939E-6;
-9,53421036481867E-6;
-8,05846506487253E-6;
-5,66654517218392E-6;
-4,23442576864237E-6;
-4,29584863325813E-6;
-4,665590176166E-6;
-3,52790619150865E-6;
-8,19438835331014E-8;
4,62735159243684E-6;
8,39510900931648E-6;
9,51108673304905E-6;
8,03448444598463E-6;
5,65070650950512E-6;
4,23703547074487E-6;
4,32406750501318E-6;
4,7205244086992E-6;
3,60454756129727E-6;
1,70867625515618E-7;
-4,53835962136101E-6;
-8,31991426703394E-6;
-9,46330314599724E-6;
-8,02379497221244E-6;
-5,67855926302948E-6;
-4,29473441615776E-6;
-4,39552610150563E-6;
-4,78872012977292E-6;
-3,65781046117352E-6;
-2,05312749136608E-7;
4,52062791569496E-6;
8,31375010929935E-6;
9,46138366931168E-6;
8,01561611863975E-6;
5,65138884556169E-6;
4,23993140174785E-6;
4,31848570167379E-6;
4,71493640700611E-6;
3,62707410133939E-6;
2,53100557593577E-7;
-4,3853323424805E-6;
-8,11969376264113E-6;
-9,2658873485417E-6;
-7,87849635616861E-6;
-5,60706832663097E-6;
-4,28435012333821E-6;
-4,41725611878239E-6;
-4,82500074067443E-6;
-3,71661192184787E-6;
-3,08757328438073E-7;
4,36305323283589E-6;
8,12328082161034E-6;
9,28179763188101E-6;
7,88372544257861E-6;
5,57085648392989E-6;
4,18229658658029E-6;
4,25317164308081E-6;
4,64440700012926E-6;
3,5962335367395E-6;
3,21182255051023E-7;
-4,19116797112083E-6;
-7,83267129119638E-6;
-8,96551359762012E-6;
-7,64268843735989E-6;
-5,46663053549903E-6;
-4,2148003205654E-6;
-4,3732301194023E-6;
-4,78781548733911E-6;
-3,71476328181539E-6;
-3,93738182396333E-7;
4,16544396966338E-6;
7,84441314884384E-6;
8,99616939754708E-6;
7,65912121659553E-6;
5,42342403108698E-6;
4,07468673633545E-6;
4,13860928120212E-6;
4,52029819491042E-6;
3,52089241899176E-6;
3,76153260457762E-7;
-3,96562519625737E-6;
-7,47731834760767E-6;
-8,58338531040947E-6;
-7,33452341672357E-6;
-5,27043245712265E-6;
-4,09659714435127E-6;
-4,27461407220022E-6;
-4,68943636471368E-6;
-3,66190236201075E-6;
-4,61754554160317E-7;
3,93742905088084E-6;
7,4957564611165E-6;
8,6259918394202E-6;
7,36015474205163E-6;
5,22204546111988E-6;
3,92666642158128E-6;
3,98429672632034E-6;
4,35290450813407E-6;
3,40912366813888E-6;
4,19078379228178E-7;
-3,71732072924582E-6;
-7,07008025474973E-6;
-8,13843349814565E-6;
-6,97024556469998E-6;
-5,0303261011153E-6;
-3,93924726636598E-6;
-4,13154841823923E-6;
-4,54103020491123E-6;
-3,56683944246229E-6;
-5,14312931957387E-7;
3,68750321422366E-6;
7,09389808227195E-6;
8,19047575489418E-6;
7,00326366079548E-6;
4,97835426183102E-6;
3,74683504096311E-6;
3,79876794945198E-6;
4,15147968504413E-6;
3,2682249793044E-6;
4,51036731929794E-7;
-3,45378903900123E-6;
-6,62546787515427E-6;
-7,64741378484371E-6;
-6,56426919241971E-6;
-4,75687169960132E-6;
-3,75128728228651E-6;
-3,95317770115573E-6;
-4,35267840057546E-6;
-3,43757305782474E-6;
-5,52908896730549E-7;
3,42308130369727E-6;
6,65348331990111E-6;
7,70664954563994E-6;
6,60304522379569E-6;
4,70269875572497E-6;
3,54285857262113E-6;
3,58962894372059E-6;
3,92427384037067E-6;
3,10473727138308E-6;
4,73101245678962E-7;
-3,18154531472157E-6;
-6,15616534461889E-6;
-7,12501631273304E-6;
-6,12926398941195E-6;
-4,45940150823497E-6;
-3,54031349479646E-6;
-3,74767671013092E-6;
-4,13341044815E-6;
-3,2813082635665E-6;
-5,7901147161745E-7;
3,1505752568468E-6;
6,18732501388639E-6;
7,18946141345361E-6;
6,17235396563978E-6;
4,40421570535385E-6;
3,32150903915247E-6;
3,36359566824547E-6;
3,67857765352195E-6;
2,92447824649939E-6;
4,86327215002129E-7;
-2,90615914647752E-6;
-5,67313608367592E-6;
-6,58399096544214E-6;
-5,67625991756969E-6;
-4,14607529764167E-6;
-3,31302397578556E-6;
-3,52229227208638E-6;
-3,89124710299562E-6;
-3,10447875762924E-6;
-5,94043518409545E-7;
2,87545005255503E-6;
5,70651392022311E-6;
6,65190784575316E-6;
5,72238642421074E-6;
4,09088440716348E-6;
3,08871783029007E-6;
3,12654848116041E-6;
3,42077572450629E-6;
2,7325770712903E-6;
4,91744784167218E-7;
-2,6323247451657E-6;
-5,18574841037665E-6;
-6,03527045512384E-6;
-5,21475005873084E-6;
-3,82396352848223E-6;
-3,07527210118775E-6;
-3,28338858121105E-6;
-3,63324486493081E-6;
-2,91278619317486E-6;
-5,99373255062423E-7;
2,60231004654579E-6;
5,2205353586719E-6;
6,10515589650005E-6;
5,26279775908796E-6;
3,76960797675794E-6;
2,84962453213384E-6;
2,88357864831313E-6;
3,15640168217065E-6;
2,53350799168937E-6;
4,90339799441884E-7;
-2,36393347753702E-6;
-4,70190041972997E-6;
-5,48812397233984E-6;
-4,75280739585749E-6;
-3,49911523993556E-6;
-2,8321178369987E-6;
-3,03650077157687E-6;
-3,3655551160821E-6;
-2,71123172697868E-6;
-5,96301777365303E-7;
2,33496453365156E-6;
4,73739333841893E-6;
5,55868005167209E-6;
4,80181157716532E-6;
3,44628377518492E-6;
2,60862504450201E-6;
2,63904534878009E-6;
2,89019743960499E-6;
2,33113715535605E-6;
4,83057564307854E-7;
-2,1041506912969E-6;
-4,22813924214292E-6;
-4,95027524042451E-6;
-4,29719487137566E-6;
-3,1766366585596E-6;
-2,58788341193906E-6;
-2,7863899059196E-6;
-3,09347979528013E-6;
-2,5041625375058E-6;
-5,86057356479247E-7;
2,07650342996523E-6;
4,26373784520634E-6;
5,02040785287688E-6;
4,34633081044042E-6;
3,12588391944342E-6;
2,36944705883546E-6;
2,39663362576707E-6;
2,62617062872315E-6;
2,1287668839614E-6;
4,70787527076062E-7;
-1,85548816331555E-6;
-3,7697901153376E-6;
-4,42805154980102E-6;
-3,85348234140887E-6;
-2,86077727304153E-6;
-2,34621017075881E-6;
-2,53709830485201E-6;
-2,82153648860447E-6;
-2,29531055524912E-6;
-5,69786560743928E-7;
1,82937304444332E-6;
3,80499070621007E-6;
4,49685002945578E-6;
3,9020561813604E-6;
2,81253014946604E-6;
2,13517906190433E-6;
2,15940361693043E-6;
2,36766142141385E-6;
1,92917691503099E-6;
4,54363368458153E-7;
-1,61987349121768E-6;
-3,33107926766873E-6;
-3,92652407391203E-6;
-3,4261647122583E-6;
-2,5550012458765E-6;
-2,11011960539651E-6;
-2,29200877787153E-6;
-2,55351810066155E-6;
-2,08784624388561E-6;
-5,48553357831045E-7;
1,59544270058223E-6;
3,36546107844667E-6;
3,99323696614388E-6;
3,47359964669449E-6;
2,50958100085661E-6;
1,90835335741469E-6;
1,92985921949737E-6;
2,11739707855981E-6;
1,73466639015218E-6;
4,34560157853428E-7;
-1,39871575410276E-6;
-2,91524917570563E-6;
-3,44962790110035E-6;
-3,01876431191228E-6;
-2,26206484540958E-6;
-1,88206174440789E-6;
-2,05390346600319E-6;
-2,29255560392749E-6;
-1,88441240576454E-6;
-5,23335504743973E-7;
1,37606786289725E-6;
2,9484703077902E-6;
3,51365908952204E-6;
3,06458870655061E-6;
2,21969639848655E-6;
1,69098634851505E-6;
1,70999018514864E-6;
1,87755512671388E-6;
1,54710469537034E-6;
4,12090062171542E-7;
-1,19297274596273E-6;
-2,52467374342856E-6;
-3,00029845408742E-6;
-2,63394194869448E-6;
-1,98409817923526E-6;
-1,66398590271171E-6;
-1,82501878476803E-6;
-2,04118037983974E-6;
-1,68718294271625E-6;
-4,9502633061821E-7;
1,17216420512954E-6;
2,55646223683264E-6;
3,06118088069079E-6;
2,67778287249547E-6;
1,9449213269183E-6;
1,48463556124388E-6;
1,50133586579756E-6;
1,64981964528845E-6;
1,3679667224349E-6;
3,87600326808042E-7;
-1,00321069593956E-6;
-2,16096511078325E-6;
-2,58058891551576E-6;
-2,27359717497259E-6;
-1,72266618882485E-6;
-1,45738156773406E-6;
-1,60710466506504E-6;
-1,80138466131505E-6;
-1,49789914469984E-6;
-4,64430772550187E-7;
9,84259732426867E-7;
2,19111251940113E-6;
2,63797596953631E-6;
2,31516919109493E-6;
1,686750730586E-6;
1,29044978371495E-6;
1,30502652613805E-6;
1,43543677052737E-6;
1,19838349642126E-6;
3,61680352431833E-7;
-8,2965925765794E-7;
-1,8250755554389E-6;
-2,19178680375651E-6;
-1,93896893632945E-6;
-1,47884534693961E-6;
-1,26333566663814E-6;
-1,40147175792947E-6;
-1,57467936632703E-6;
-1,31791905915515E-6;
-4,32269008873646E-7;
8,12552249880974E-7;
1,85342829986231E-6;
2,24543712242983E-6;
1,97806114488042E-6;
1,44619926898393E-6;
1,10922745594607E-6;
1,12184386009327E-6;
1,23526624155176E-6;
1,03917286933868E-6;
3,34853718023653E-7;
-6,72266058104482E-7;
-1,51739065735853E-6;
-1,83451435738875E-6;
-1,63071984896168E-6;
-1,25328631222692E-6;
-1,08258454647551E-6;
-1,20905593042198E-6;
-1,36215346633406E-6;
-1,14825399491169E-6;
-3,99181416847292E-7;
6,56962045480337E-7;
1,54384584593335E-6;
1,88427767829481E-6;
1,66718957391604E-6;
1,22386690359907E-6;
9,41446647983645E-7;
9,52255383243836E-7;
1,04983393469844E-6;
8,9087958847595E-7;
3,07585030137849E-7;
-5,30740062613826E-7;
-1,23782017846678E-6;
-1,50883649289445E-6;
-1,34902028541684E-6;
-1,04626783943044E-6;
-9,15553648579146E-7;
-1,03044750546269E-6;
-1,16451719991802E-6;
-9,89614731510742E-7;
-3,6572835497732E-7;
5,17179639755745E-7;
1,26231533459208E-6;
1,55463990008706E-6;
1,38278461513042E-6;
1,01999155061541E-6;
7,87324859321085E-7;
7,96467102801254E-7;
8,79373616715082E-7;
7,53814634986691E-7;
2,80279927304524E-7;
-4,04603356391833E-7;
-9,85871288723759E-7;
-1,21434423285304E-6;
-1,09363433062261E-6;
-8,57762345064353E-7;
-7,62409261985034E-7;
-8,659528798422E-7;
-9,82162086044125E-7;
-8,42445428947668E-7;
-3,32394158075522E-7;
3,92704229772564E-7;
1,00838072942091E-6;
1,25618304604551E-6;
1,12465789364904E-6;
8,34510068629415E-7;
6,46848463957279E-7;
6,54454784007145E-7;
7,23874907651651E-7;
6,28087384014149E-7;
2,53289421395499E-7;
-2,93216264165579E-7;
-7,60723899822748E-7;
-9,50240783656713E-7;
-8,63976333127822E-7;
-6,87478351867792E-7;
-6,23089074889974E-7;
-7,15625709715863E-7;
-8,15204479722729E-7;
-7,06966204112202E-7;
-2,99594450780784E-7;
2,82889944935687E-7;
7,81255737462557E-7;
9,88166135397103E-7;
8,92270364747412E-7;
6,67103861220418E-7;
5,1981234755156E-7;
5,26008824482434E-7;
5,83119653261806E-7;
5,13630044564693E-7;
2,26913342465807E-7;
-1,95827303402432E-7;
-5,6130233612451E-7;
-7,15416254860452E-7;
-6,59188066497629E-7;
-5,349098312482E-7;
-4,97350575046327E-7;
-5,79320213314677E-7;
-6,6352235669349E-7;
-5,83194835125313E-7;
-2,67675795570496E-7;
1,86975198320936E-7;
5,79887556425682E-7;
7,49525243999159E-7;
6,84796315030244E-7;
5,17249002529129E-7;
4,05854504450035E-7;
4,1075613063752E-7;
4,56718453225022E-7;
4,10233579250438E-7;
2,01397462908877E-7;
-1,11596779869104E-7;
-3,86325502323869E-7;
-5,08515970536188E-7;
-4,78187937357574E-7;
-3,99378331355461E-7;
-3,84791415736309E-7;
-4,56705301432992E-7;
-5,26799524638518E-7;
-4,70986766392308E-7;
-2,36927479882687E-7;
1,04109618155222E-7;
4,03017704418564E-7;
5,38943319427239E-7;
5,01186013453758E-7;
3,84251060439911E-7;
3,04485046883528E-7;
3,08205445191321E-7;
3,44141966293024E-7;
3,17568708002003E-7;
1,76950048317831E-7;
-3,96218417518226E-8;
-2,34361466682285E-7;
-3,27996182834835E-7;
-3,19727204644657E-7;
-2,80071121620796E-7;
-2,8488899543878E-7;
-3,4731820700016E-7;
-4,04563903171215E-7;
-3,70061122652564E-7;
-2,07579168626116E-7;
3,33917364514419E-8;
2,49232564705733E-7;
3,54906039757203E-7;
3,40213676542155E-7;
2,67290659740377E-7;
2,15116878792896E-7;
2,17761572569304E-7;
2,44754797425419E-7;
2,35211903050068E-7;
1,53729292420489E-7;
2,1032236300523E-8;
-1,03874195625192E-7;
-1,72182006077635E-7;
-1,82433619483021E-7;
-1,76073549915076E-7;
-1,97027402089644E-7;
-2,50579480346149E-7;
-2,96211336668071E-7;
-2,80027191356136E-7;
-1,79809969747404E-7;
-2,61173327102433E-8;
1,1701055765284E-7;
1,95764379788497E-7;
2,00526748639563E-7;
1,65447662408061E-7;
1,37083770533818E-7;
1,3875470034766E-7;
1,57839917606092E-7;
1,62664109836575E-7;
1,31858903928314E-7;
7,13225145904444E-8;
6,73441722400833E-9;
-3,93136310218186E-8;
-6,48509044915643E-8;
-8,6399038823084E-8;
-1,20513804005187E-7;
-1,65825879214752E-7;
-2,01042171572321E-7;
-2,0040066180072E-7;
-1,5375357359902E-7;
-7,53730703678182E-8;
4,76140283661349E-9;
5,97717500189037E-8;
8,06819205151381E-8;
7,77347341073791E-8;
6,96711544142181E-8;
7,04631747805957E-8;
8,26161229602134E-8;
9,93726371273942E-8;
1,11428990400359E-7;
1,12198158184253E-7;
9,90938800660369E-8;
7,24189348615103E-8;
3,4526669808326E-8;
-1,00156842339967E-8;
-5,46114488658216E-8;
-9,23307237838285E-8;
-1,18283611903755E-7;
-1,30635635717938E-7;
-1,29500150022743E-7;
-1,15323468149184E-7;
-8,91363090940626E-8;
-5,48699951465263E-8;
-2,08148294916639E-8;
3,12073778085656E-9;
1,21235454451235E-8;
1,21313373055755E-8;
1,82664700305904E-8;
4,47391516966428E-8;
9,24955292406135E-8;
1,44600096287225E-7;
1,7483916813848E-7;
1,64838091592008E-7;
1,17219340860387E-7;
5,41307493560138E-8;
1,45290077048707E-9;
-2,93269234258236E-8;
-4,71113504318181E-8;
-7,01322515056073E-8;
-1,07105397502502E-7;
-1,46903505510116E-7;
-1,66311572109873E-7;
-1,49977230629343E-7;
-1,05479970411791E-7;
-5,94444544843236E-8;
-3,63297110052945E-8;
-3,70186771801234E-8;
-3,60466397382547E-8;
-1,85131149873249E-9;
7,50906524501405E-8;
1,69437489741129E-7;
2,35576257318023E-7;
2,39750326438571E-7;
1,84747855322232E-7;
1,07100989022795E-7;
4,84649252950495E-8;
2,39818041296261E-8;
1,33287863787241E-8;
-1,82611830931169E-8;
-8,65908033051833E-8;
-1,7102055959858E-7;
-2,28369497788676E-7;
-2,27353258697631E-7;
-1,74828115518828E-7;
-1,11013901694267E-7;
-7,64664414396329E-8;
-7,77670192082568E-8;
-8,11675390829148E-8;
-4,1033381180509E-8;
5,92194016386039E-8;
1,87586751865972E-7;
2,82873860790537E-7;
2,98920847440571E-7;
2,38600270044388E-7;
1,49948795530768E-7;
8,721633805194E-8;
6,83952893618517E-8;
6,39063169254049E-8;
2,56316856422507E-8;
-6,79512662683193E-8;
-1,88544008932991E-7;
-2,7687552567955E-7;
-2,88765863231773E-7;
-2,30346427210932E-7;
-1,5262749462163E-7;
-1,09054201039564E-7;
-1,10888446622176E-7;
-1,17937034081662E-7;
-7,34387961589109E-8;
4,48688200670711E-8;
1,99879909375578E-7;
3,18238118059274E-7;
3,44057038967908E-7;
2,80223551006786E-7;
1,8369322444028E-7;
1,18482023932607E-7;
1,0471512856786E-7;
1,05487705939223E-7;
6,22004394665461E-8;
-5,1157473793591E-8;
-2,00299306821561E-7;
-3,13339273231435E-7;
-3,359275717798E-7;
-2,73486496324954E-7;
-1,85305150704384E-7;
-1,34845816705207E-7;
-1,37137471471753E-7;
-1,47173297994521E-7;
-9,9694163157948E-8;
3,20066658185193E-8;
2,07098208919411E-7;
3,43104477164742E-7;
3,76793981772981E-7;
3,11004345060935E-7;
2,09327286873608E-7;
1,4302595615243E-7;
1,33726119871004E-7;
1,38930650736323E-7;
9,21017078231562E-8;
-3,61609493948401E-8;
-2,07062293833755E-7;
-3,39198932498043E-7;
-3,70477894686314E-7;
-3,05633796453778E-7;
-2,10022290139365E-7;
-1,54570394536777E-7;
-1,57246366300344E-7;
-1,69673186235219E-7;
-1,20414418840409E-7;
2,05851419919221E-8;
2,09972660825857E-7;
3,58830505366255E-7;
3,98680005889842E-7;
3,32261083055117E-7;
2,27795086834121E-7;
1,61582093785539E-7;
1,56191759800136E-7;
1,65065151702783E-7;
1,15980066745779E-7;
-2,28943493660144E-8;
-2,09557380994383E-7;
-3,55812389848094E-7;
-3,93973820351861E-7;
-3,28114108611398E-7;
-2,27713408530314E-7;
-1,68923432205056E-7;
-1,71918398732714E-7;
-1,86198903918838E-7;
-1,36186952809659E-7;
1,05466398243548E-8;
2,09178036885382E-7;
3,66681954735705E-7;
4,11165915492129E-7;
3,4523793031512E-7;
2,39994412996608E-7;
1,74848134517134E-7;
1,7284389937998E-7;
1,8469550859991E-7;
1,34459326264914E-7;
-1,12787112897238E-8;
-2,08452678054186E-7;
-3,64453299314516E-7;
-4,0787910091921E-7;
-3,42177052507117E-7;
-2,39265984483328E-7;
-1,78566696833204E-7;
-1,81815686214985E-7;
-1,97473392515245E-7;
-1,47580974656233E-7;
1,82119721305346E-9;
2,05333377163508E-7;
3,67835343243958E-7;
4,15606224372726E-7;
3,51092415762068E-7;
2,4676270072457E-7;
1,83488938292908E-7;
1,84381606881704E-7;
1,98586217820987E-7;
1,481391370934E-7;
-1,22667382863668E-9;
-2,04361086812137E-7;
-3,66300271948205E-7;
-4,13556606751159E-7;
-3,48987788469594E-7;
-2,4550501410086E-7;
-1,84120958587649E-7;
-1,87566542415243E-7;
-2,04179234523432E-7;
-1,55131739558709E-7;
-5,66328862881966E-9;
1,99003048463402E-7;
3,63372079918064E-7;
4,1325168275644E-7;
3,50901224330066E-7;
2,48884459680174E-7;
1,8812514573751E-7;
1,91461119249949E-7;
2,07461401798331E-7;
1,57591563391395E-7;
7,35876479841039E-9;
-1,97840216002005E-7;
-3,62442886192927E-7;
-4,12268608635071E-7;
-3,49629258469518E-7;
-2,47204590669692E-7;
-1,86166165145525E-7;
-1,89753684124206E-7;
-2,06951879807846E-7;
-1,59343426102783E-7;
-1,19923632017042E-8;
1,9069253182766E-7;
3,54280695804405E-7;
4,05245372550907E-7;
3,45650210518144E-7;
2,47083873517523E-7;
1,8933848254403E-7;
1,94697566085572E-7;
2,11998534201186E-7;
1,63358384628915E-7;
1,45829294889832E-8;
-1,89387809192431E-7;
-3,53871911109377E-7;
-4,05171405578412E-7;
-3,45096980483355E-7;
-2,45074824478586E-7;
-1,85236478973958E-7;
-1,88917210851757E-7;
-2,06382136203842E-7;
-1,60688762144028E-7;
-1,7249099212097E-8;
1,8085876662688E-7;
3,41454532405453E-7;
3,92627005821638E-7;
3,36239345493628E-7;
2,42018253464811E-7;
1,87658483753138E-7;
1,94662047420446E-7;
2,12827758950608E-7;
1,65941116550574E-7;
2,05462579260686E-8;
-1,79454440563886E-7;
-3,41487832499903E-7;
-3,93318322239727E-7;
-3,3629849566145E-7;
-2,39767730082166E-7;
-1,81826202388274E-7;
-1,85554931700298E-7;
-2,03013562539876E-7;
-1,59600859969541E-7;
-2,15162048570097E-8;
1,69899906746381E-7;
3,25691024625256E-7;
3,76335920027921E-7;
3,23484542835194E-7;
2,342917523749E-7;
1,83579530339144E-7;
1,91882271431987E-7;
2,10530806947094E-7;
1,65811124735408E-7;
2,53588217980672E-8;
-1,68436282750888E-7;
-3,26100911450986E-7;
-3,77659048192026E-7;
-3,2405558482454E-7;
-2,31873590841975E-7;
-1,76381801271178E-7;
-1,80118792599184E-7;
-1,97339390989154E-7;
-1,56481635847291E-7;
-2,48854349992597E-8;
1,581699822383E-7;
3,07709445808107E-7;
3,57208496718079E-7;
3,08111928415297E-7;
2,24447838858657E-7;
1,7754322652385E-7;
1,86833632048786E-7;
2,05640876716852E-7;
1,6340104580945E-7;
2,91255371636047E-8;
-1,56679605099079E-7;
-3,08427319279697E-7;
-3,59043655849054E-7;
-3,09108337693688E-7;
-2,21923828137182E-7;
-1,69306417658826E-7;
-1,73016825929284E-7;
-1,89808296419344E-7;
-1,5169524697662E-7;
-2,74401515806002E-8;
1,45974882494823E-7;
2,88137348890401E-7;
3,35988387603802E-7;
2,90772033657684E-7;
2,12968573279615E-7;
1,69951520970508E-7;
1,79954521482232E-7;
1,98641284295715E-7;
1,5910459650132E-7;
3,1949756896609E-8;
-1,4448327122842E-7;
-2,89104019057042E-7;
-3,38228318028332E-7;
-2,92112551154554E-7;
-2,10397898009971E-7;
-1,6096517757036E-7;
-1,64615690658497E-7;
-1,80823269010691E-7;
-1,45572028176505E-7;
-2,92673598155448E-8;
1,33573974921982E-7;
2,67524119647591E-7;
3,13326654146786E-7;
2,7203671921703E-7;
2,00285550946875E-7;
1,61161794829151E-7;
1,71635007782967E-7;
1,89968872191631E-7;
1,53282151157873E-7;
3,39341449916764E-8;
-1,32107957855215E-7;
-2,68686935498747E-7;
-3,15874663030012E-7;
-2,73647747191041E-7;
-1,97714715894212E-7;
-1,51681248528908E-7;
-1,55242117286995E-7;
-1,70739960859936E-7;
-1,38408599198067E-7;
-3,044562598158E-8;
1,21193278326443E-7;
2,46343691031208E-7;
2,89790350879937E-7;
2,52406018205961E-7;
1,86777328207755E-7;
1,51493036741049E-7;
1,62222965043067E-7;
1,80012831360248E-7;
1,46255250738956E-7;
3,51750117363578E-8;
-1,19770706834014E-7;
-2,47657374623149E-7;
-2,92561971572455E-7;
-2,5422138189648E-7;
-1,84244287930146E-7;
-1,41737539259824E-7;
-1,45185187022092E-7;
-1,59876355779633E-7;
-1,30468177676421E-7;
-3,10553744948776E-8;
1,09018145887293E-7;
2,25003280914757E-7;
2,65865624336347E-7;
2,32309726927244E-7;
1,72770018566494E-7;
1,41225260260378E-7;
1,52028743513323E-7;
1,69118403847997E-7;
1,38314419919145E-7;
3,57678324089392E-8;
-1,07652069899754E-7;
-2,26423786286379E-7;
-2,68785245855063E-7;
-2,34272414667641E-7;
-1,70307181679349E-7;
-1,3137827569436E-7;
-1,34695436409762E-7;
-1,48511752136024E-7;
-1,21984755874179E-7;
-3,11722744236245E-8;
9,71961490114135E-8;
2,03843220140376E-7;
2,41965005522136E-7;
2,12112476729355E-7;
1,58546598763473E-7;
1,30599467848678E-7;
1,41318969184517E-7;
1,57589989796701E-7;
1,29713122160183E-7;
3,57984115020696E-8;
-9,58990574986962E-8;
-2,05334956143379E-7;
-2,44970118771052E-7;
-2,14173335571246E-7;
-1,56180164183457E-7;
-1,20821041363456E-7;
-1,23989571278375E-7;
-1,36884207322288E-7;
-1,13159695471375E-7;
-3,08635024839949E-8;
8,58494856854191E-8;
1,83144505668602E-7;
2,18434411347939E-7;
1,92127988029203E-7;
1,44346655858559E-7;
1,19825912561048E-7;
1,30331638349053E-7;
1,45688797081497E-7;
1,20675558179967E-7;
3,53513694764638E-8;
-8,46318092401964E-8;
-1,84676384360352E-7;
-2,21468793930377E-7;
-1,94242356444183E-7;
-1,42097128344987E-7;
-1,10247331605262E-7;
-1,13252682742939E-7;
-1,25195639790234E-7;
-1,04169436532626E-7;
-3,01964187532372E-8;
7,507489853527E-8;
1,63139789326844E-7;
1,95557099212492E-7;
1,72609100563105E-7;
1,30370669578391E-7;
1,09081050286982E-7;
1,19263491863753E-7;
1,33644037195539E-7;
1,11398187396767E-7;
3,45021965977306E-8;
-7,39409683558838E-8;
-1,6468318592138E-7;
-1,98572728014341E-7;
-1,74739822865873E-7;
-1,2825327699566E-7;
-9,98087366301101E-8;
-1,02642100596627E-7;
-1,13622358327806E-7;
-9,51651547740627E-8;
-2,9233496380366E-8;
6,49376922815091E-8;
1,44007719328564E-7;
1,73560580203411E-7;
1,53762705020192E-7;
1,16782456663536E-7;
9,85133211937809E-8;
1,08285026338391E-7;
1,21647433068755E-7;
1,02045139388124E-7;
3,33221860131784E-8;
-6,38914096786957E-8;
-1,45540949032953E-7;
-1,76517580360119E-7;
-1,55877307535836E-7;
-1,148083611462E-7;
-8,96323640756998E-8;
-9,22866212280521E-8;
-1,02307886951193E-7;
-8,62725854636518E-8;
-2,80297109136677E-8;
5,54895618492942E-8;
1,25890357336322E-7;
1,52620809522191E-7;
1,35754589665878E-7;
1,03717418166126E-7;
8,8244735856814E-8;
9,75372996498708E-8;
1,09860167193016E-7;
9,27605923779033E-8;
3,18758175768074E-8;
-5,45321535537953E-8;
-1,27391235765589E-7;
-1,55488559345778E-7;
-1,37827841569351E-7;
-1,01893238710103E-7;
-7,98200203687074E-8;
-8,22893996481802E-8;
-9,13693742267564E-8;
-7,75973640864632E-8;
-2,66352048494527E-8;
4,67573170842849E-8;
1,08885723917537E-7;
1,32872505254627E-7;
1,18708157568905E-7;
9,12758232839022E-8;
7,8372586661595E-8;
8,71342054776078E-8;
9,84139145668767E-8;
8,36623548895008E-8;
3,02221617858672E-8;
-4,58904959895378E-8;
-1,10340124562228E-7;
-1,35624655546043E-7;
-1,2071605059161E-7;
-8,96034841462539E-8;
-7,04526555240731E-8;
-7,27366125169991E-8;
-8,09005453416714E-8;
-6,92241142573699E-8;
-2,50958625846491E-8;
3,87558617443378E-8;
9,30624127750907E-8;
1,14409890803303E-7;
1,0271440867416E-7;
7,95363645803579E-8;
6,89748748582627E-8;
7,71691235803413E-8;
8,74157151563287E-8;
7,48456377036893E-8;
2,84132192853288E-8;
-3,79796962554478E-8;
-9,44590156568262E-8;
-1,17026312958619E-7;
-1,0464172612462E-7;
-7,80184739892922E-8;
-6,15939772495866E-8;
-6,36905028885292E-8;
-7,09701785072001E-8;
-6,12225409359975E-8;
-2,34541437667581E-8;
3,14904146115414E-8;
7,8462913668914E-8;
9,72919915522258E-8;
8,78349316752651E-8;
6,85563659631204E-8;
6,01083664486782E-8;
6,77105605071012E-8;
7,69485637380605E-8;
6,63897196012093E-8;
2,64974882947026E-8;
-3,07984312676473E-8;
-7,97897998024899E-8;
-9,9756918353974E-8;
-8,96670632023192E-8;
-6,71883412376371E-8;
-5,32837600825859E-8;
-5,51971884248482E-8;
-6,16345363072441E-8;
-5,36414582975027E-8;
-2,17460194703289E-8;
2,4944475614862E-8;
6,50988324669543E-8;
8,15473332114608E-8;
7,41016338118133E-8;
5,83685574364284E-8;
5,18144531325695E-8;
5,88120008011712E-8;
6,70736069457288E-8;
5,83538368534189E-8;
2,45149368282192E-8;
-2,43347142691989E-8;
-6,63499172321178E-8;
-8,3853406881621E-8;
-7,58293214486288E-8;
-5,71473430142957E-8;
-4,55556614190339E-8;
-4,72871931409786E-8;
-5,29276787196916E-8;
-4,65213954343493E-8;
-2,00042438566385E-8;
1,91004907933274E-8;
5,29659335787573E-8;
6,71838884683368E-8;
6,15302654594711E-8;
4,89915969865193E-8;
4,41175170827223E-8;
5,05117295873341E-8;
5,7837661108981E-8;
5,0783016285447E-8;
2,25018766860007E-8;
-1,85698102777062E-8;
-5,41353557186355E-8;
-6,93226254071222E-8;
-6,31454458381003E-8;
-4,79126815717832E-8;
-3,84242155963229E-8;
-3,99789867197818E-8;
-4,48713217670758E-8;
-3,98865772962312E-8;
-1,82568414824962E-8;
1,39308585473357E-8;
4,20408333837191E-8;
5,41867920474335E-8;
5,01134583578753E-8;
4,04282712283883E-8;
3,70327121053109E-8;
4,2828050721215E-8;
4,92652344403559E-8;
4,37095193939618E-8;
2,04914017709296E-8;
-1,34745868294129E-8;
-4,31268177549011E-8;
-5,61547171545463E-8;
-5,16113209728848E-8;
-3,94847576477334E-8;
-3,18956039978579E-8;
-3,32797605350348E-8;
-3,7474672911124E-8;
-3,37543820207406E-8;
-1,65272619529391E-8;
9,4049288162339E-9;
3,2287564230403E-8;
4,25197825301593E-8;
3,98263938856947E-8;
3,26714153632307E-8;
3,05621396427677E-8;
3,57721390172217E-8;
4,13724184990147E-8;
3,71517483013138E-8;
1,85090310596984E-8;
-9,016117144889E-9;
-3,32870578942708E-8;
-4,43167777600947E-8;
-4,12061803097181E-8;
-3,18549857823567E-8;
-2,59638530442581E-8;
-2,71854026603714E-8;
-3,07351887923084E-8;
-2,81246778006384E-8;
-1,4835316606567E-8;
5,48239794313349E-9;
2,36576891292966E-8;
3,21385250147155E-8;
3,06381720921737E-8;
2,57016296569484E-8;
2,46968875628946E-8;
2,93420653852183E-8;
3,4161736013821E-8;
3,11186981670945E-8;
1,65754994716388E-8;
-5,15813060306359E-9;
-2,45716143645782E-8;
-3,37673314424674E-8;
-3,18988205034331E-8;
-2,50037892606601E-8;
-2,06177501813454E-8;
-2,16846862753245E-8;
-2,46434739070143E-8;
-2,2999675805537E-8;
-1,31978970234862E-8;
2,12502285312219E-9;
1,60934060133053E-8;
2,29816089280723E-8;
2,24998666824894E-8;
1,9490879896223E-8;
1,94251632117386E-8;
2,35296436762046E-8;
2,76244817167682E-8;
2,56118449909719E-8;
1,4712007267274E-8;
-1,85834790285332E-9;
-1,692323769978E-8;
-2,44467321635618E-8;
-2,36422829366646E-8;
-1,89032350337477E-8;
-1,58404979181962E-8;
-1,67612013244616E-8;
-1,91797501370496E-8;
-1,83692857956494E-8;
-1,16302217662109E-8;
-7,10726775104508E-10;
9,53327883634208E-9;
1,49871895121263E-8;
1,53608587902937E-8;
1,40069865940733E-8;
1,4726826436513E-8;
1,83168121518693E-8;
2,17453047494402E-8;
2,0624435752973E-8;
1,29310811308621E-8;
9,22845866767155E-10;
-1,02804102895226E-8;
-1,62942698278495E-8;
-1,6390310435553E-8;
-1,3519970877403E-8;
-1,16058938407991E-8;
-1,23887690673626E-8;
-1,43216219190048E-8;
-1,42195616854837E-8;
-1,01402857807724E-8;
-3,06698033663746E-9;
3,90824335800571E-9;
8,07856941153357E-9;
9,16046111691992E-9;
9,20916458752472E-9;
1,05748149028631E-8;
1,36819778314514E-8;
1,65007181465563E-8;
1,61413003844195E-8;
1,12450112216131E-8;
3,23243858527654E-9;
-4,57437803767778E-9;
-9,23447485477104E-9;
-1,00794864384304E-8;
-8,81416162410055E-9;
-7,88929646799335E-9;
-8,5450431469752E-9;
-1,00407399377066E-8;
-1,0531106747818E-8;
-8,7374891290574E-9;
-4,98708805583012E-9;
-8,51311904918334E-10;
2,18129623231664E-9;
3,83728196790691E-9;
5,05650031814776E-9;
6,94057190588603E-9;
9,59776019571686E-9;
1,18647635029539E-8;
1,21466927411628E-8;
9,66280024639261E-9;
5,11139123520128E-9;
2,62329164460375E-10;
-3,19365331272889E-9;
-4,6509395983903E-9;
-4,74510807450117E-9;
-4,65886305353116E-9;
-5,19650339958689E-9;
-6,30227352144793E-9;
-7,28118325358983E-9;
-7,42789533414395E-9;
-6,51427272277739E-9;
-4,81894190441647E-9;
-2,78541372957067E-9;
-6,74239338069276E-10;
1,50536327481716E-9;
3,79424822475105E-9;
6,03295118034689E-9;
7,80429069453471E-9;
8,61779181915707E-9;
8,18667793161985E-9;
6,60062926989674E-9;
4,30224290644881E-9;
1,90693825726821E-9;
-3,89751320126324E-11;
-1,26600433868206E-9;
-1,88228482517992E-9;
-2,31311433510223E-9;
-3,07481687145086E-9;
-4,44733167489583E-9;
-6,21491272926732E-9;
-7,69009222706774E-9;
-8,06418022257346E-9;
-6,89938449094754E-9;
-4,44193196420571E-9;
-1,49239084042328E-9;
1,100987872215E-9;
2,95533504956207E-9;
4,28410191366888E-9;
5,53098463503735E-9;
6,82514646612679E-9;
7,74389624814836E-9;
7,61528291758047E-9;
6,14597395532216E-9;
3,82300556450118E-9;
1,66742747725958E-9;
4,73919089556648E-10;
1,41357934111242E-10;
-3,20050272126515E-10;
-2,0008741290565E-9;
-5,09916667502265E-9;
-8,55487678399323E-9;
-1,0658726133145E-8;
-1,02406788709975E-8;
-7,53188660439472E-9;
-3,983703120793E-9;
-1,17582382758717E-9;
3,29164145898171E-10;
1,26688064361127E-9;
2,85616922839399E-9;
5,5766720794293E-9;
8,58068170323089E-9;
1,02719356442376E-8;
9,6024986933554E-9;
6,99932720596158E-9;
4,09889951751149E-9;
2,44378912017729E-9;
2,20026410038294E-9;
1,99727009463183E-9;
8,55429492236089E-11;
-4,08217247351715E-9;
-9,147067630737E-9;
-1,26687579307673E-8;
-1,28860949221731E-8;
-1,00102193906818E-8;
-6,01321925895022E-9;
-3,06703361710396E-9;
-1,87829290817358E-9;
-1,28366949728926E-9;
5,6778934156875E-10;
4,44122196631789E-9;
9,14862404964195E-9;
1,2342314340723E-8;
1,23544110911662E-8;
9,5581232770298E-9;
6,07916186435721E-9;
4,06152746579875E-9;
3,89824758500014E-9;
3,9172360180408E-9;
1,83846708930283E-9;
-3,16343530706052E-9;
-9,50065619465106E-9;
-1,41635089072139E-8;
-1,49122684874102E-8;
-1,19378758333396E-8;
-7,62714478469194E-9;
-4,6110548175478E-9;
-3,70615760658913E-9;
-3,40870431776399E-9;
-1,36514395421691E-9;
3,41702252442345E-9;
9,4831005174482E-9;
1,38899477896513E-8;
1,44760251185298E-8;
1,15614272546703E-8;
7,65080968354732E-9;
5,36132334711254E-9;
5,26798007990569E-9;
5,47416901910179E-9;
3,28864454562618E-9;
-2,33894122065108E-9;
-9,65163003955185E-9;
-1,52026478806729E-8;
-1,63876031901416E-8;
-1,33786896586475E-8;
-8,86922437525788E-9;
-5,83961235126968E-9;
-5,18734456427429E-9;
-5,14475797254564E-9;
-2,97222203768878E-9;
2,50195539876279E-9;
9,61857394063769E-9;
1,49783437212524E-8;
1,60390373610162E-8;
1,30709539158618E-8;
8,85758419496035E-9;
6,37426322664282E-9;
6,34376905670264E-9;
6,70585631116659E-9;
4,46289950186452E-9;
-1,60733319068681E-9;
-9,6319357731048E-9;
-1,58470068278933E-8;
-1,7382579576169E-8;
-1,43910295452261E-8;
-9,7829072591294E-9;
-6,78732962777077E-9;
-6,35646076229283E-9;
-6,53027194780214E-9;
-4,2820660093863E-9;
1,69177526927767E-9;
9,58478265295857E-9;
1,56671793231238E-8;
1,71117966643274E-8;
1,41437459303991E-8;
9,74053746395693E-9;
7,13358684742968E-9;
7,15743061439602E-9;
7,6449434009611E-9;
5,38816341156237E-9;
-9,62149118879049E-10;
-9,46746928394209E-9;
-1,61517931740732E-8;
-1,79615786523095E-8;
-1,50299445268543E-8;
-1,04061757408242E-8;
-7,48592079885737E-9;
-7,24966707752499E-9;
-7,60151026357216E-9;
-5,32528405233501E-9;
9,79797795473007E-10;
9,41113031580559E-9;
1,60119639669371E-8;
1,77596290489781E-8;
1,48366240879476E-8;
1,03404682060786E-8;
7,67011181702252E-9;
7,739675483433E-9;
8,32725110567749E-9;
6,09355149220439E-9;
-4,00684546080321E-10;
-9,18608834090484E-9;
-1,61680161416175E-8;
-1,81831463876135E-8;
-1,53468202571509E-8;
-1,07809982844212E-8;
-7,96407183038512E-9;
-7,89417598536173E-9;
-8,39428277132865E-9;
-6,12682758215682E-9;
3,63590163243674E-10;
9,12158451661304E-9;
1,6063811204258E-8;
1,80431607460391E-8;
1,52016612393149E-8;
1,06948091543781E-8;
8,01070659618162E-9;
8,11887087728231E-9;
8,78383499393492E-9;
6,601845978905E-9;
8,1803310361604E-11;
-8,81115768455211E-9;
-1,59425756233439E-8;
-1,8102598404647E-8;
-1,5387776642338E-8;
-1,09370909724989E-8;
-8,25311345636922E-9;
-8,32561572857252E-9;
-8,94145274662221E-9;
-6,71603650520332E-9;
-1,64745305710254E-10;
8,74154144075828E-9;
1,58691026636733E-8;
1,80150270489724E-8;
1,5286960050307E-8;
1,0837137586702E-8;
8,18163831483316E-9;
8,3230612627641E-9;
9,04280303456243E-9;
6,93726395865396E-9;
4,91001019591346E-10;
-8,36484262985993E-9;
-1,55190737644096E-8;
-1,776998710993E-8;
-1,51996150277215E-8;
-1,09115097163513E-8;
-8,37626836870435E-9;
-8,56897656282269E-9;
-9,27472805543364E-9;
-7,1176004427461E-9;
-6,11643982501609E-10;
8,29126192612247E-9;
1,54733903737401E-8;
1,77296007551379E-8;
1,51362964397348E-8;
1,07999218455922E-8;
8,20891892887441E-9;
8,37693262207645E-9;
9,13400862035922E-9;
7,12344141447733E-9;
8,31603043298536E-10;
-7,86459866655231E-9;
-1,49361746128517E-8;
-1,7233241418685E-8;
-1,48215453804189E-8;
-1,07327706865508E-8;
-8,35999004972446E-9;
-8,65048888080621E-9;
-9,42403473271761E-9;
-7,3570143061796E-9;
-9,8276032741767E-10;
7,78724689326669E-9;
1,49129203558426E-8;
1,7231286223663E-8;
1,47905135036989E-8;
1,06147724212825E-8;
8,11482621225136E-9;
8,30363219295952E-9;
9,08324922611334E-9;
7,18158785703722E-9;
1,11061222896223E-9;
-7,32610522494492E-9;
-1,42265945402152E-8;
-1,65307650219648E-8;
-1,42898579160201E-8;
-1,04283400763023E-8;
-8,22755014544699E-9;
-8,59858614507747E-9;
-9,41741427630256E-9;
-7,4559841619938E-9;
-1,28447952520276E-9;
7,2503446614991E-9;
1,42255824616249E-8;
1,65622229783807E-8;
1,42856099674099E-8;
1,03051192872375E-8;
7,92073973849578E-9;
8,12513867888944E-9;
8,91169404305729E-9;
7,13015628457979E-9;
1,33215154618669E-9;
-6,76539338097468E-9;
-1,34242648432251E-8;
-1,57023433578973E-8;
-1,36362743713207E-8;
-1,0022620960184E-8;
-7,99900773754113E-9;
-8,43140614280363E-9;
-9,27768187929974E-9;
-7,43427705186771E-9;
-1,52218601833818E-9;
6,69026838965027E-9;
1,34388753497293E-8;
1,57605383279045E-8;
1,36567249736535E-8;
9,89810076475703E-9;
7,64458898534641E-9;
7,85945696299743E-9;
8,64193495767582E-9;
6,98720017537639E-9;
1,50321161240327E-9;
-6,1932353660163E-9;
-1,25557717005279E-8;
-1,47794408390639E-8;
-1,28910400420067E-8;
-9,53873702442204E-9;
-7,69277178931605E-9;
-8,17218894172374E-9;
-9,03046562731884E-9;
-7,31231945961262E-9;
-1,70481183966448E-9;
6,12004596157914E-9;
1,25850625860537E-8;
1,48597147638344E-8;
1,29306579454172E-8;
9,41414449253799E-9;
7,3045711958012E-9;
7,52597949889412E-9;
8,29411777136221E-9;
6,77249663472964E-9;
1,6292686825045E-9;
-5,62203012734971E-9;
-1,16426641654602E-8;
-1,37915900987798E-8;
-1,20804045637246E-8;
-8,99488029268301E-9;
-7,32682251177562E-9;
-7,83816965582098E-9;
-8,69469361863871E-9;
-7,10839918131332E-9;
-1,83452599895311E-9;
5,55252257716925E-9;
1,16836745536775E-8;
1,3888850288876E-8;
1,21367770448629E-8;
8,87292127067374E-9;
6,91429911474083E-9;
7,14052443722233E-9;
7,88669921284691E-9;
6,49651039946832E-9;
1,71392933197464E-9;
-5,05948290535279E-9;
-1,07078685429707E-8;
-1,27621312613378E-8;
-1,12265260526422E-8;
-8,41080143378448E-9;
-6,91500501193899E-9;
-7,44758670001277E-9;
-8,29113598887984E-9;
-6,83799856972353E-9;
-1,92183246442412E-9;
4,99222004135686E-9;
1,07575826047931E-8;
1,28725578845975E-8;
1,12947436915997E-8;
8,29275964941975E-9;
6,4894176775514E-9;
6,71510440199402E-9;
7,43333056906504E-9;
6,17404844656138E-9;
1,76286603033135E-9;
-4,51172611117694E-9;
-9,76870864934856E-9;
-1,17148646867675E-8;
-1,03475958113092E-8;
-7,79950197980404E-9;
-6,47054138137588E-9;
-7,01305868819582E-9;
-7,83451147583931E-9;
-6,51477064395606E-9;
-1,96915989891239E-9;
4,44848354901241E-9;
9,82532245090458E-9;
1,18354433511883E-8;
1,04258173192477E-8;
7,68634730192474E-9;
6,04012093065931E-9;
6,26313439683467E-9;
6,94774002290713E-9;
5,81693996451115E-9;
1,7811910029749E-9;
-3,98532563625251E-9;
-8,83917530042595E-9;
-1,06676904641707E-8;
-9,46200259815255E-9;
-7,17482467386971E-9;
-6,00568711271185E-9;
-6,55059994013333E-9;
-7,34136325314168E-9;
-6,15233678280854E-9;
-1,98354802335034E-9;
3,92683701156596E-9;
8,90138494613582E-9;
1,07941985713454E-8;
9,54640977255109E-9;
7,06784698167324E-9;
5,57748492362126E-9;
5,7955125582721E-9;
6,44196858372995E-9;
5,43536429475515E-9;
1,77320131543101E-9;
-3,48519976789352E-9;
-7,93119798795408E-9;
-9,63545751344355E-9;
-8,58377255176201E-9;
-6,54777474002704E-9;
-5,5291909153966E-9;
-6,06795818405801E-9;
-6,82249044178191E-9;
-5,76197722130845E-9;
-1,96833024847698E-9;
3,43226172121562E-9;
7,99638991500177E-9;
9,76575268421926E-9;
8,67323317206144E-9;
6,44677459268293E-9;
5,10922975784737E-9;
5,32065219064075E-9;
5,92616412271688E-9;
5,0391786246093E-9;
1,74196601062205E-9;
-3,01432536926963E-9;
-7,0549219701543E-9;
-8,63154665124881E-9;
-7,72306999416027E-9;
-5,92774613842657E-9;
-5,05168284424173E-9;
-5,57738360837159E-9;
-6,29054099988407E-9;
-5,35255868621123E-9;
-1,92807325357907E-9;
2,96622251716783E-9;
7,12186781772463E-9;
8,76261581301406E-9;
7,81582243903899E-9;
5,83492736880487E-9;
4,64398179217164E-9;
4,84593112946589E-9;
5,41002019010911E-9;
4,636530152018E-9;
1,69207713122734E-9;
-2,57590637807076E-9;
-6,21799244566534E-9;
-7,66440587296065E-9;
-6,89106184529779E-9;
-5,32407708344248E-9;
-4,57890148420107E-9;
-5,08598147901044E-9;
-5,75527293858159E-9;
-4,93459907352972E-9;
-1,8692132390547E-9;
2,53165444756882E-9;
6,28603804188809E-9;
7,79492830238437E-9;
6,98407950508104E-9;
5,23722126097035E-9;
4,18767047328831E-9;
4,38013461624664E-9;
4,90003345404757E-9;
4,23333133091825E-9;
1,62724127017823E-9;
-2,17040779124829E-9;
-5,42626209557291E-9;
-6,74302907373246E-9;
-6,09311987397238E-9;
-4,74043480490086E-9;
-4,11571440781738E-9;
-4,60239456872051E-9;
-5,22704815592708E-9;
-4,51306682735735E-9;
-1,79325820634547E-9;
2,12940702747025E-9;
5,49453671656993E-9;
6,87128563936422E-9;
6,18678146874624E-9;
4,66174254974206E-9;
3,74504542417704E-9;
3,9278174370762E-9;
4,40409542191989E-9;
3,83468689392545E-9;
1,55096153250213E-9;
-1,79790234831111E-9;
-4,68547763638864E-9;
-5,87471473029972E-9;
-5,33766588972728E-9;
-4,1830595195342E-9;
-3,6693831677149E-9;
-4,13009987693456E-9;
-4,70637367713369E-9;
-4,09624231215552E-9;
-1,70506949549684E-9;
1,76123036366512E-9;
4,75095871876302E-9;
5,99861322212777E-9;
5,43004320503217E-9;
4,11218934230356E-9;
3,31917996662562E-9;
3,49107557987061E-9;
3,92575918035587E-9;
3,44635219331159E-9;
1,46356827748691E-9;
-1,45981080401112E-9;
-3,99482393956954E-9;
-5,06036158508388E-9;
-4,62749285674829E-9;
-3,6569630977429E-9;
-3,24231397828437E-9;
-3,67476509792924E-9;
-4,20345150254204E-9;
-3,68832092588585E-9;
-1,60610124878564E-9;
1,42845951535049E-9;
4,05986815955947E-9;
5,18071684671763E-9;
4,7171487300362E-9;
3,59264574975614E-9;
2,91682224551289E-9;
3,07513238695033E-9;
3,46645539047602E-9;
3,07215378320302E-9;
1,37144631634899E-9;
-1,15491420237732E-9;
-3,35939211523646E-9;
-4,30643140756878E-9;
-3,96514121149337E-9;
-3,16165567733774E-9;
-2,83847913058786E-9;
-3,24302251959876E-9;
-3,72342040160258E-9;
-3,29401295535948E-9;
-1,50118558163935E-9;
1,12726708060936E-9;
3,42176637927675E-9;
4,42014185307722E-9;
4,05098283424996E-9;
3,1052469600969E-9;
2,53679026066109E-9;
2,68307706534292E-9;
3,03352564236779E-9;
2,71430847282454E-9;
1,27429737001376E-9;
-8,82189852618422E-10;
-2,77794351874574E-9;
-3,61228972337548E-9;
-3,35379318846437E-9;
-2,70249029229956E-9;
-2,45845273039139E-9;
-2,83199624811528E-9;
-3,26639349388398E-9;
-2,91658725347958E-9;
-1,39215018484931E-9;
8,58659826401134E-10;
2,83802637750957E-9;
3,72034401477758E-9;
3,43565698792082E-9;
2,65159386105274E-9;
2,18123361152274E-9;
2,31644841327997E-9;
2,62729216821648E-9;
2,3751260717849E-9;
1,17489529408404E-9;
-6,41023140809584E-10;
-2,25195903502428E-9;
-2,97999876669069E-9;
-2,79285026825574E-9;
-2,27722049603403E-9;
-2,10489338639873E-9;
-2,44807989344217E-9;
-2,83644512840512E-9;
-2,5576498089813E-9;
-1,28061910945989E-9;
6,20852722364138E-10;
2,3071726170484E-9;
3,07905872765237E-9;
2,87081818360859E-9;
2,23455267108023E-9;
1,85200524793955E-9;
1,97483043754228E-9;
2,24929228661274E-9;
2,05776428747839E-9;
1,07401838589206E-9;
-4,30259158849618E-10;
-1,77819246812208E-9;
-2,40592954669378E-9;
-2,28309088383391E-9;
-1,88971351308531E-9;
-1,7776928195161E-9;
-2,09061715942102E-9;
-2,43593812457654E-9;
-2,22197591062895E-9;
-1,16924143954667E-9;
4,14919164830145E-10;
1,83044874309246E-9;
2,49797671676576E-9;
2,35533647212573E-9;
1,85148430900307E-9;
1,55006757137391E-9;
1,66057773900709E-9;
1,89960332413668E-9;
1,76240379721586E-9;
9,74045745737465E-10;
-2,4786873830677E-10;
-1,35544530198199E-9;
-1,89060763506886E-9;
-1,82198703656516E-9;
-1,53682283641949E-9;
-1,47895866832296E-9;
-1,76138088983305E-9;
-2,06564394890557E-9;
-1,90665234053352E-9;
-1,05745380915077E-9;
2,34419791542851E-10;
1,40511356107619E-9;
1,97615731577185E-9;
1,88944358207999E-9;
1,5051590270375E-9;
1,27456973706693E-9;
1,37286838847489E-9;
1,57957333582672E-9;
1,48818350512716E-9;
8,7660300958503E-10;
-9,0692384519272E-11;
-9,83334925879692E-10;
-1,43209736856412E-9;
-1,41066412034225E-9;
-1,21994349161971E-9;
-1,20566967980025E-9;
-1,45847657863401E-9;
-1,72437491688869E-9;
-1,61665890234633E-9;
-9,50467971489648E-10;
8,02986827349082E-11;
1,02685668059456E-9;
1,50991678472748E-9;
1,47320947686731E-9;
1,191272091364E-9;
1,02448879252349E-9;
1,11339302980605E-9;
1,28811425914343E-9;
1,23733016981187E-9;
7,82467915828808E-10;
4,20535613598775E-11;
-6,55839278172498E-10;
-1,02747293095437E-9;
-1,04540339717997E-9;
-9,34785526995015E-10;
-9,59773199721393E-10;
-1,18551463119055E-9;
-1,41357933942504E-9;
-1,34847685690131E-9;
-8,45772171764729E-10;
-4,85311114025098E-11;
6,97680053532159E-10;
1,09762907408682E-9;
1,10288799354845E-9;
9,13638291274393E-10;
8,00588681475669E-10;
8,77918968429997E-10;
1,02556890995429E-9;
1,00956047461188E-9;
6,91260256462092E-10;
1,5119659111026E-10;
-3,73529301781414E-10;
-6,73029504374259E-10;
-7,23704469080706E-10;
-6,83656603796535E-10;
-7,39713260785858E-10;
-9,38671771289358E-10;
-1,13375513516547E-9;
-1,10524940593352E-9;
-7,45290907673077E-10;
-1,55945718793519E-10;
4,11983738355183E-10;
7,37739220221934E-10;
7,75707339489655E-10;
6,6563404357591E-10;
6,01755426782236E-10;
6,68702963550008E-10;
7,899040773312E-10;
8,03102387998104E-10;
6,04273688302401E-10;
2,4043184815246E-10;
-1,31977256421984E-10;
-3,68335767607177E-10;
-4,45165231360375E-10;
-4,63200996082109E-10;
-5,44396104477783E-10;
-7,17809196000079E-10;
-8,81704994727337E-10;
-8,84579809049829E-10;
-6,51343770711274E-10;
-2,45270943278669E-10;
1,66651830049643E-10;
4,2631888701831E-10;
4,93094525076767E-10;
4,51060295944929E-10;
4,25177969141159E-10;
4,82710631588863E-10;
5,82152662302473E-10;
6,18853164926822E-10;
5,23249416908987E-10;
3,11809959448469E-10;
7,17191454962522E-11;
-1,0702290704643E-10;
-2,04886293180506E-10;
-2,72661094245349E-10;
-3,73109622402348E-10;
-5,218673459153E-10;
-6,57785305096632E-10;
-6,87111591328487E-10;
-5,61420963978009E-10;
-3,13112062606335E-10;
-4,1354321265451E-11;
1,56935998326043E-10;
2,47150578214657E-10;
2,62119824655839E-10;
2,72491088083683E-10;
3,22063149568195E-10;
3,98238173909845E-10;
4,55141023762723E-10;
4,46871868855621E-10;
3,65922452829529E-10;
2,41886746747736E-10;
1,12673595676106E-10;
-5,16291105821086E-13;
-1,07638940201728E-10;
-2,25387637815682E-10;
-3,51451064976938E-10;
-4,59887830990768E-10;
-5,11312740535044E-10;
-4,78875852596659E-10;
-3,66873072498824E-10;
-2,13958837105946E-10;
-6,93916091394048E-11;
3,6899663982865E-11;
1,0116632284967E-10;
1,40485235143439E-10;
1,80668389990183E-10;
2,38586396790929E-10;
3,1088562374264E-10;
3,76342352115798E-10;
4,05961382317976E-10;
3,80104069173097E-10;
2,96486269248291E-10;
1,70360650699065E-10;
3,11122330699561E-11;
-9,67229470464292E-11;
-2,02729217353018E-10;
-2,87941152366838E-10;
-3,56516386136528E-10;
-4,01124689585775E-10;
-4,05195823769554E-10;
-3,55860341308571E-10;
-2,57313028185005E-10;
-1,37653237873281E-10;
-3,5046198643527E-11;
2,69020606474676E-11;
5,94279433087125E-11;
1,01815458153296E-10;
1,86345436338424E-10;
3,10960411116315E-10;
4,33109671107497E-10;
4,90062514107999E-10;
4,44502642360917E-10;
3,11508173192888E-10;
1,4775116368172E-10;
1,25683505113255E-11;
-7,52016273454806E-11;
-1,40275256299183E-10;
-2,21275985177148E-10;
-3,30698394748622E-10;
-4,32249348783464E-10;
-4,68810859087447E-10;
-4,11149127805861E-10;
-2,82588370760765E-10;
-1,48493165514935E-10;
-6,79371832814866E-11;
-4,22277601448039E-11;
-1,56880699510688E-11;
7,73177423912164E-11;
2,52057577534836E-10;
4,4928492458054E-10;
5,74259041149415E-10;
5,6150149076418E-10;
4,24165934385059E-10;
2,43212839014432E-10;
1,03223980143665E-10;
3,29386061239895E-11;
-1,24727153978257E-11;
-1,03629557227959E-10;
-2,65398278581056E-10;
-4,47380631648339E-10;
-5,56188137045408E-10;
-5,33038620889396E-10;
-3,99632791010349E-10;
-2,42086479989077E-10;
-1,47869387304603E-10;
-1,28260926808504E-10;
-1,13464032515556E-10;
-1,49536939363932E-11;
1,98337636648103E-10;
4,57363268416825E-10;
6,37774765805836E-10;
6,52121521438508E-10;
5,12862330341287E-10;
3,19649213742874E-10;
1,78933153670772E-10;
1,2375451288028E-10;
9,40518460818868E-11;
-5,02438562990221E-12;
-2,08325665059258E-10;
-4,52793204626807E-10;
-6,221175010019E-10;
-6,29146132770178E-10;
-4,91515084277171E-10;
-3,17108915788173E-10;
-2,11996844338213E-10;
-1,98298621977691E-10;
-1,94531626632026E-10;
-9,1399195928274E-11;
1,49834011578431E-10;
4,55266336044951E-10;
6,79843492828574E-10;
7,17161664346306E-10;
5,78935037096595E-10;
3,79045949783374E-10;
2,39542649347012E-10;
1,97141316450371E-10;
1,81304465577423E-10;
7,8898555191934E-11;
-1,55678359519617E-10;
-4,51099955014087E-10;
-6,66800600535636E-10;
-6,98381241927832E-10;
-5,61661139778867E-10;
-3,74416995781801E-10;
-2,62336881599782E-10;
-2,5365885540874E-10;
-2,58547938560888E-10;
-1,54810919598003E-10;
1,07393532525931E-10;
4,47205906538617E-10;
7,04664613978569E-10;
7,62006011365874E-10;
6,26390327915407E-10;
4,22570520729739E-10;
2,87281296690824E-10;
2,57219026475104E-10;
2,52648321573217E-10;
1,4919351477397E-10;
-1,0884048252849E-10;
-4,42847232478939E-10;
-6,95020818578724E-10;
-7,47843982316405E-10;
-6,12316959426795E-10;
-4,17725042024655E-10;
-3,01378389818307E-10;
-2,95621689644515E-10;
-3,09587339840476E-10;
-2,07052603748371E-10;
6,93933031006902E-11;
4,33149921182169E-10;
7,16606756928227E-10;
7,89486818604021E-10;
6,57439440800264E-10;
4,53855057916736E-10;
3,21876319690577E-10;
3,03051641865473E-10;
3,08841402541585E-10;
2,04411568285011E-10;
-6,84240396154383E-11;
-4,2903987687189E-10;
-7,07568264949514E-10;
-7,76196422838388E-10;
-6,45051513668852E-10;
-4,483112523421E-10;
-3,30570399477932E-10;
-3,28857111708713E-10;
-3,4792056078808E-10;
-2,45790296574251E-10;
3,718616851702E-11;
4,16049202780206E-10;
7,15124877032675E-10;
7,98891873509335E-10;
6,73496167488586E-10;
4,72557892001612E-10;
3,45842786192082E-10;
3,36946670323523E-10;
3,52419117911138E-10;
2,49555926894163E-10;
-3,4004492209348E-11;
-4,1166090970778E-10;
-7,07483710433021E-10;
-7,89793311211665E-10;
-6,63950209477882E-10;
-4,6661688374778E-10;
-3,48958002307972E-10;
-3,49887664700048E-10;
-3,75147223316964E-10;
-2,76954256794283E-10;
9,09803438090415E-12;
3,94653679811574E-10;
7,03425142488979E-10;
7,95980557916071E-10;
6,76960881802614E-10;
4,83091144431852E-10;
3,63322619631358E-10;
3,61887607560677E-10;
3,83792300796608E-10;
2,82921677342959E-10;
-3,22357766626266E-12;
-3,89421233334527E-10;
-6,97695881235155E-10;
-7,89202302788708E-10;
-6,6924134815477E-10;
-4,75882841514794E-10;
-3,5998063686566E-10;
-3,63601622659644E-10;
-3,92341298291574E-10;
-2,99028025265828E-10;
-1,649555010739E-11;
3,70312251772004E-10;
6,82899901418863E-10;
7,82593959986545E-10;
6,70961441804232E-10;
4,84058342241039E-10;
3,72220064193776E-10;
3,76525752240927E-10;
4,04208530404716E-10;
3,08221886758377E-10;
2,23547917911342E-11;
-3,66063874444735E-10;
-6,78814387535745E-10;
-7,77855083165041E-10;
-6,65768923856048E-10;
-4,77713257317264E-10;
-3,6445171426352E-10;
-3,70978834513148E-10;
-4,02694623617868E-10;
-3,12438518761126E-10;
-3,6110935233072E-11;
3,44808104050758E-10;
6,55923730731185E-10;
7,59202260806281E-10;
6,55608656973273E-10;
4,77206370102405E-10;
3,73298570886857E-10;
3,8467461031417E-10;
4,16064096782257E-10;
3,23708639241363E-10;
4,41537484715867E-11;
-3,40061767329777E-10;
-6,52762141069146E-10;
-7,5570605734903E-10;
-6,51313311147429E-10;
-4,69688723577653E-10;
-3,60960188463075E-10;
-3,71047355429798E-10;
-4,04716902596942E-10;
-3,20158211964677E-10;
-5,34101056248526E-11;
3,19085339225593E-10;
6,24358945112047E-10;
7,27765826019613E-10;
6,32771694094728E-10;
4,65557692082661E-10;
3,68961093953094E-10;
3,84420896890942E-10;
4,20356844207652E-10;
3,34050732274265E-10;
6,18060910092034E-11;
-3,13525175896713E-10;
-6,22040940630044E-10;
-7,28279813161614E-10;
-6,29673757950805E-10;
-4,57561975534013E-10;
-3,55856396234655E-10;
-3,65248640567171E-10;
-4,00224323230698E-10;
-3,21425682542683E-10;
-6,61754734432511E-11;
2,90942461060183E-10;
5,8790668156548E-10;
6,92156089168038E-10;
6,04847006741331E-10;
4,48530076442283E-10;
3,61239186558966E-10;
3,80952765208798E-10;
4,17917772683402E-10;
3,37093033573582E-10;
7,55487102419749E-11;
-2,87059342348348E-10;
-5,85925980482502E-10;
-6,92469012308709E-10;
-6,03635471914577E-10;
-4,41895252979659E-10;
-3,45064935110456E-10;
-3,56264321276798E-10;
-3,92119575272019E-10;
-3,19301792713621E-10;
-7,76271703929312E-11;
2,64192326692934E-10;
5,48501770055664E-10;
6,50982949949338E-10;
5,72706295005139E-10;
4,27441495522727E-10;
3,48625563329142E-10;
3,71262004159889E-10;
4,08733025760288E-10;
3,33865341699656E-10;
8,64145096477809E-11;
-2,59997863767989E-10;
-5,48443714478826E-10;
-6,54413130295758E-10;
-5,72760050891218E-10;
-4,20892415122303E-10;
-3,31748070712673E-10;
-3,4310857653516E-10;
-3,78347563587203E-10;
-3,13067667877975E-10;
-8,53050178090331E-11;
2,38259533005178E-10;
5,07800905321772E-10;
6,07662385673949E-10;
5,37635325649165E-10;
4,04812474215518E-10;
3,33524065102315E-10;
3,57880076047901E-10;
3,97097351281173E-10;
3,28026682672766E-10;
9,50460571114128E-11;
-2,32615747961369E-10;
-5,08042399944811E-10;
-6,11085773526485E-10;
-5,37994963481149E-10;
-3,97564877276981E-10;
-3,14018081026296E-10;
-3,27300699942967E-10;
-3,62412382310916E-10;
-3,01773596556604E-10;
-9,03784649992085E-11;
2,11998746871643E-10;
4,66408535339589E-10;
5,63190071275865E-10;
5,00557930680353E-10;
3,79120566353066E-10;
3,15609149697403E-10;
3,41040321238435E-10;
3,80487812858502E-10;
3,17758207359678E-10;
9,99072022698271E-11;
-2,07951666504933E-10;
-4,67752274505137E-10;
-5,67108448735385E-10;
-5,02440582166371E-10;
-3,72798394423223E-10;
-2,95765686084723E-10;
-3,09960355870432E-10;
-3,43764695210142E-10;
-2,89389311854751E-10;
-9,44063032284315E-11;
1,86892885066942E-10;
4,24530394078325E-10;
5,17343967864499E-10;
4,62315239150131E-10;
3,51928204918664E-10;
2,95960558356401E-10;
3,23291867375713E-10;
3,61957330128584E-10;
3,04648804637365E-10;
1,03557896123778E-10;
-1,82777176137429E-10;
-4,2620542598004E-10;
-5,21490485139745E-10;
-4,63779179433954E-10;
-3,45346975324382E-10;
-2,76107935649924E-10;
-2,89956684348992E-10;
-3,22823357738517E-10;
-2,75262688274004E-10;
-9,58766203349651E-11;
1,63848672611523E-10;
3,83232006787937E-10;
4,70378740807435E-10;
4,22680697112757E-10;
3,24293794036429E-10;
2,75175099643311E-10;
3,02637846532854E-10;
3,41271204754708E-10;
2,9064481102924E-10;
1,05597221120946E-10;
-1,59990112515444E-10;
-3,85945200488394E-10;
-4,75009819256265E-10;
-4,25294113594633E-10;
-3,19649269733537E-10;
-2,56262305996698E-10;
-2,68402388063021E-10;
-3,00339349013436E-10;
-2,583385211464E-10;
-9,53205300779102E-11;
1,40917716606716E-10;
3,43510313193729E-10;
4,25353729263889E-10;
3,84033936893242E-10;
2,97353975668786E-10;
2,5472111503127E-10;
2,82772462813309E-10;
3,19398732657772E-10;
2,73341481259196E-10;
1,05263276678787E-10;
-1,37362714690382E-10;
-3,45842461740089E-10;
-4,3027321254119E-10;
-3,86483462108568E-10;
-2,91583761390292E-10;
-2,35583619175362E-10;
-2,48268192059626E-10;
-2,78083354386224E-10;
-2,40055217883262E-10;
-9,36443806760983E-11;
1,20259297508789E-10;
3,05209529224064E-10;
3,81334448089512E-10;
3,45936133743825E-10;
2,69405468394561E-10;
2,33768798488464E-10;
2,59856638540758E-10;
2,93734532711665E-10;
2,55262488782107E-10;
1,03551410155119E-10;
-1,17605731016439E-10;
-3,07109370591819E-10;
-3,85773606224609E-10;
-3,49181381278344E-10;
-2,6457978422118E-10;
-2,14811029157377E-10;
-2,27537746375355E-10;
-2,56061896767527E-10;
-2,23902553890652E-10;
-9,24395329670355E-11;
1,01020624215364E-10;
2,68741662778015E-10;
3,38324767187856E-10;
3,08355808783292E-10;
2,43104714536895E-10;
2,12879378423627E-10;
2,38298863541949E-10;
2,71554224509349E-10;
2,36627111999842E-10;
1,00266947822026E-10;
-9,75681009248818E-11;
-2,70260059788444E-10;
-3,43817327777572E-10;
-3,12153889912833E-10;
-2,3726683064015E-10;
-1,93418290353832E-10;
-2,06368627213002E-10;
-2,33415816143473E-10;
-2,05087158483633E-10;
-8,90794709643654E-11;
8,30675692674534E-11;
2,34153161907502E-10;
2,97898556215258E-10;
2,73459235664392E-10;
2,16784507681573E-10;
1,91169696797176E-10;
2,1628238783438E-10;
2,47911246151789E-10;
2,18081897644E-10;
9,62987392952684E-11;
-8,10779134186004E-11;
-2,35959790862646E-10;
-3,03503654248991E-10;
-2,77326051075792E-10;
-2,12191598702688E-10;
-1,73915413730535E-10;
-1,85573436673542E-10;
-2,10457270108813E-10;
-1,87087558598388E-10;
-8,46789966659271E-11;
6,85765796922325E-11;
2,02470138257301E-10;
2,60320093280239E-10;
2,39768622048553E-10;
1,90722357416814E-10;
1,71418672362815E-10;
1,95721081857923E-10;
2,24285523380782E-10;
1,98800673791053E-10;
9,20019921687435E-11;
-6,54992496316731E-11;
-2,0375274939388E-10;
-2,6378323971906E-10;
-2,42504113396049E-10;
-1,87949617143796E-10;
-1,55709214281902E-10;
-1,65901751693769E-10;
-1,88172344758322E-10;
-1,69444376064613E-10;
-8,10219236315893E-11;
5,27789337496362E-11;
1,71533559726093E-10;
2,24797140914622E-10;
2,08527758672703E-10;
1,67254494381733E-10;
1,51928144600689E-10;
1,74156113016054E-10;
2,00282830802284E-10;
1,79880164301213E-10;
8,67678205193629E-11;
-5,17393316724192E-11;
-1,73231333815718E-10;
-2,28219070160111E-10;
-2,11413228183559E-10;
-1,64391771764985E-10;
-1,3705534067151E-10;
-1,46713126127312E-10;
-1,67209276021122E-10;
-1,50919644518376E-10;
-7,4442642390785E-11;
4,11624047541562E-11;
1,44099511319862E-10;
1,90285750506637E-10;
1,78883260600558E-10;
1,46712540604827E-10;
1,34133357825706E-10;
1,53861103975231E-10;
1,78786091683703E-10;
1,61428768265303E-10;
8,04071377049202E-11;
-3,84075987956849E-11;
-1,45179966552797E-10;
-1,95547939792453E-10;
-1,8175611079033E-10;
-1,42061300712539E-10;
-1,19828358202792E-10;
-1,28901113637367E-10;
-1,47954693749203E-10;
-1,35447519240807E-10;
-6,99711197041703E-11;
2,93577681291652E-11;
1,18883905320951E-10;
1,60516778792863E-10;
1,52067633708745E-10;
1,2482499545046E-10;
1,15631720948036E-10;
1,36175462763159E-10;
1,58371375239775E-10;
1,43888562828185E-10;
7,59330150459867E-11;
-2,73083502638472E-11;
-1,19987317296396E-10;
-1,6461710374861E-10;
-1,5571869132533E-10;
-1,22617297079771E-10;
-1,03958539593342E-10;
-1,11997864609726E-10;
-1,28270352233441E-10;
-1,18347009469898E-10;
-6,37398169689159E-11;
1,90729316503758E-11;
9,50759851899775E-11;
1,32366479408316E-10;
1,26659666562699E-10;
1,05636681587019E-10;
9,99466094745684E-11;
1,17907340890357E-10;
1,38702724885942E-10;
1,27935582131992E-10;
6,96783566538224E-11;
-1,82838911605933E-11;
-9,76517707826906E-11;
-1,3615826674669E-10;
-1,29818848437543E-10;
-1,0282125047728E-10;
-8,72995446843016E-11;
-9,57539372760404E-11;
-1,10602964329404E-10;
-1,03635593269269E-10;
-5,91190378612867E-11;
1,11342435699076E-11;
7,52111004706181E-11;
1,07277575162101E-10;
1,03889402214729E-10;
8,78183289413825E-11;
8,53479593704374E-11;
1,01451773510037E-10;
1,19689604688248E-10;
1,12018451815029E-10;
6,39405887645693E-11;
-9,560941910421E-12;
-7,66304889865357E-11;
-1,09687743352476E-10;
-1,05340736948279E-10;
-8,5325876316833E-11;
-7,45570420030355E-11;
-8,20320015115007E-11;
-9,5055130461054E-11;
-9,00637884553403E-11;
-5,38934037172777E-11;
3,81252264525504E-12;
5,67941845597202E-11;
8,3572644149591E-11;
8,30569926534894E-11;
7,21082149764882E-11;
7,05731387539019E-11;
8,57201460530024E-11;
1,02727652184207E-10;
9,66731664340262E-11;
5,78377641763638E-11;
-2,56514846027924E-12;
-5,85822913512939E-11;
-8,72275267354651E-11;
-8,55506144512793E-11;
-6,94563137098557E-11;
-6,10295692549102E-11;
-6,81025145846014E-11;
-7,92976859018285E-11;
-7,64789742701064E-11;
-4,88633239765492E-11;
-3,00701042886344E-12;
4,00914765009127E-11;
6,34269980194606E-11;
6,54059671252681E-11;
5,75264782872939E-11;
5,76695856713788E-11;
7,18760433947691E-11;
8,66331112588408E-11;
8,27162002076837E-11;
5,24423405150975E-11;
4,25252816120269E-12;
-4,19016633759091E-11;
-6,59949753754256E-11;
-6,61766451250804E-11;
-5,58921547719613E-11;
-4,93985320495388E-11;
-5,45004214063732E-11;
-6,50217097535836E-11;
-6,42691668098084E-11;
-4,28692240293487E-11;
-7,3055102201152E-12;
2,69123321450591E-11;
4,58386509011917E-11;
4,80878466098613E-11;
4,46000811377169E-11;
4,71439659236612E-11;
5,9076020434197E-11;
7,12496096704948E-11;
6,92963270898967E-11;
4,6806698092864E-11;
9,29098256062255E-12;
-2,77969175922612E-11;
-4,86766824475117E-11;
-5,05726541812847E-11;
-4,30622707890914E-11;
-3,92464294477774E-11;
-4,46813181855063E-11;
-5,28484638431862E-11;
-5,33357251268407E-11;
-3,8686075038552E-11;
-1,22416153418999E-11;
1,40608341108923E-11;
3,04668672606167E-11;
3,41826888014786E-11;
3,32936238561163E-11;
3,72601013359787E-11;
4,75905957648276E-11;
5,81339427157069E-11;
5,81814155878376E-11;
4,14441188660925E-11;
1,27625435473449E-11;
-1,51492935319632E-11;
-3,26225244748829E-11;
-3,59351944074656E-11;
-3,14193251111033E-11;
-3,02712212433519E-11;
-3,4631252165251E-11;
-4,12108324294122E-11;
-4,34240759708623E-11;
-3,45474090669344E-11;
-1,5777168332142E-11;
3,97413109955457E-12;
1,61776395349495E-11;
2,11185845519099E-11;
2,35043475103846E-11;
2,7846397195913E-11;
3,69275213115631E-11;
4,61064222592217E-11;
4,72789226952885E-11;
3,61566653863499E-11;
1,54606154038601E-11;
-5,46936360749989E-12;
-1,90741770358872E-11;
-2,35461613595404E-11;
-2,21326217195635E-11;
-2,16738105760665E-11;
-2,56245737037923E-11;
-3,10000144961328E-11;
-3,34134709851528E-11;
-2,94786133369012E-11;
-1,80632657614655E-11;
-4,66026380065261E-12;
5,07258450267897E-12;
1,06070690263209E-11;
1,43684949334769E-11;
2,01218608491671E-11;
2,75700819266259E-11;
3,56086933303036E-11;
3,87965379935281E-11;
3,11721586067929E-11;
1,86106639411916E-11;
4,67086745196864E-12;
-7,74902994908334E-12;
-1,26665982381165E-11;
-1,37058347771079E-11;
-1,49839704045357E-11;
-1,75231045852588E-11;
-2,20616154644929E-11;
-2,53615948411236E-11;
-2,48659712118332E-11;
-1,93694284420743E-11;
-1,1180054362343E-11;
-4,72685929134962E-12;
1,47136562432085E-12;
7,83073376777903E-12;
1,29265435001639E-11;
1,92077037232685E-11;
2,59521117897604E-11;
2,89694265250654E-11;
2,70844655967394E-11;
2,0794698866499E-11;
1,20963497066561E-11;
3,70843403760595E-12;
-2,83353053046169E-12;
-5,48604412609532E-12;
-7,60378215057894E-12;
-1,19519195427162E-11;
-1,50803584504684E-11;
-1,83930479614241E-11;
-2,16757873294842E-11;
-2,10958303292328E-11;
-1,7909435455834E-11;
-1,29659235604328E-11;
-6,29355137782806E-12;
4,29477465028527E-13;
6,83807089008439E-12;
1,32326206233301E-11;
1,83887352753513E-11;
2,15801083880049E-11;
2,27278862778258E-11;
2,11316667163734E-11;
1,70645847899819E-11;
1,09436633512946E-11;
5,50234287899425E-12;
6,31762415326531E-13;
-3,73215670389065E-12;
-5,17443183641517E-12;
-8,18233244280629E-12;
-1,21654827255676E-11;
-1,64496832713653E-11;
-2,20620758438336E-11;
-2,26076828197966E-11;
-1,89546978209071E-11;
-1,31592617222743E-11;
-5,68549520735256E-12;
1,29772491615721E-12;
7,32149110534391E-12;
1,05703005326643E-11;
1,43199218999092E-11;
1,89533072610946E-11;
2,12220303939174E-11;
2,18953766373279E-11;
1,86794465954567E-11;
1,1932062723025E-11;
5,69674787634494E-12;
1,75559793881373E-12;
3,76818155693293E-14;
-2,10882030594239E-12;
-6,1642755811557E-12;
-1,33315469125733E-11;
-2,23823893473572E-11;
-2,61872633945812E-11;
-2,37455549362194E-11;
-1,78732248545301E-11;
-9,29525857898026E-12;
-2,67282257931728E-12;
8,73094310519267E-13;
4,20380116494522E-12;
8,66877472428446E-12;
1,54985164238366E-11;
2,28257178641016E-11;
2,63201065761125E-11;
2,32112823119512E-11;
1,67237991687603E-11;
1,09385549588417E-11;
5,97347566268974E-12;
4,0427472848875E-12;
2,90794544821074E-12;
-2,00730440116345E-12;
-1,07338533571841E-11;
-2,17568352525077E-11;
-2,8556426089796E-11;
-2,82220509726554E-11;
-2,21393017498604E-11;
-1,3138594125594E-11;
-6,87735385764807E-12;
-3,07667523519052E-12;
-6,48730749778475E-13;
3,84743639121769E-12;
1,28093908579406E-11;
2,16926828691961E-11;
2,81688051346751E-11;
2,76182365515671E-11;
2,08702680168816E-11;
1,41650104941322E-11;
8,75706848768468E-12;
7,58927860078228E-12;
7,87866656325625E-12;
2,48711413999161E-12;
-8,96591344848814E-12;
-2,12085491594555E-11;
-2,91090351362113E-11;
-3,11472807188609E-11;
-2,50488432974632E-11;
-1,47276005457553E-11;
-9,27317944905064E-12;
-8,01498091386212E-12;
-5,74462736779044E-12;
-6,3398465055341E-13;
9,18036936395359E-12;
2,18811308970235E-11;
2,98235461237397E-11;
3,03918309248127E-11;
2,54385859777455E-11;
1,68559798404133E-11;
1,13716651157759E-11;
1,0556728700268E-11;
9,40981566442952E-12;
5,01973428809189E-12;
-5,96970964002551E-12;
-2,11918956520108E-11;
-3,20177048240929E-11;
-3,32822192470795E-11;
-2,74254373584131E-11;
-1,88096155930508E-11;
-1,10023774804128E-11;
-9,23943839216547E-12;
-9,6515007747329E-12;
-4,5605844511988E-12;
6,58005325305139E-12;
2,08772534121483E-11;
3,15563817869188E-11;
3,35098175127145E-11;
2,77096723710465E-11;
1,88763436169059E-11;
1,3015905467559E-11;
1,20837382007809E-11;
1,20937385227165E-11;
7,42853265464515E-12;
-4,02249455041148E-12;
-1,87450721977681E-11;
-3,06729570281018E-11;
-3,43932979972134E-11;
-2,88107830570365E-11;
-1,9761503526279E-11;
-1,33881209703002E-11;
-1,19065809596052E-11;
-1,21995165999979E-11;
-7,10871272575122E-12;
4,94600614112986E-12;
2,00556170545642E-11;
3,21084826409244E-11;
3,4786231823999E-11;
2,9084657789361E-11;
2,09585210930176E-11;
1,51994223019246E-11;
1,38421210928073E-11;
1,43896134106081E-11;
1,00601187220153E-11;
-2,68909980038567E-12;
-1,88574747377854E-11;
-3,09911928473522E-11;
-3,49337104904767E-11;
-2,99382205603602E-11;
-2,02432199960298E-11;
-1,44414390577765E-11;
-1,42814409896783E-11;
-1,4431068727717E-11;
-9,83371280797877E-12;
2,31171258991901E-12;
1,80802022772151E-11;
3,09720784853778E-11;
3,47804291818901E-11;
2,890974752578E-11;
2,05448303841104E-11;
1,51255055297256E-11;
1,54482974841049E-11;
1,69776554369368E-11;
1,23478597179593E-11;
-2,75575584375808E-14;
-1,77615254628876E-11;
-3,13578364376883E-11;
-3,45115171218725E-11;
-2,924800879209E-11;
-2,0378465766706E-11;
-1,53105555092819E-11;
-1,52662985388571E-11;
-1,53562262552794E-11;
-1,02777689379366E-11;
1,92249905552755E-12;
1,7727787419236E-11;
3,10973997919493E-11;
3,46784206356899E-11;
2,97870771874829E-11;
2,21636692552643E-11;
1,60045149490776E-11;
1,64756428988092E-11;
1,75483878148977E-11;
1,21394399479782E-11;
5,77175554964721E-13;
-1,5945653740104E-11;
-2,96406639231445E-11;
-3,37339269095417E-11;
-2,93037006541741E-11;
-2,16036685564973E-11;
-1,66902706475021E-11;
-1,62705278930847E-11;
-1,68321330028351E-11;
-1,2662527412932E-11;
-8,33644095380509E-13;
1,64562190475887E-11;
3,12398974959212E-11;
3,53449369950041E-11;
2,99514585026831E-11;
2,14799395238399E-11;
1,59923757923318E-11;
1,69815897067235E-11;
1,86094079493526E-11;
1,32999171929183E-11;
7,99980582771855E-13;
-1,51571783431584E-11;
-2,8415390819058E-11;
-3,38355121789123E-11;
-3,00056761226122E-11;
-2,14335479471238E-11;
-1,64692174366066E-11;
-1,73112522110778E-11;
-1,85795158012503E-11;
-1,37227394400882E-11;
-1,15784728733245E-12;
1,51871725921833E-11;
2,93652291766586E-11;
3,45976452199118E-11;
2,96717318047989E-11;
2,09500992178987E-11;
1,57468265133814E-11;
1,7453424239513E-11;
1,97002277124289E-11;
1,45045183526266E-11;
2,63142169922667E-12;
-1,31957512771304E-11;
-2,70092062363482E-11;
-3,12383709907492E-11;
-2,78194645187224E-11;
-2,12134851203548E-11;
-1,60475191482801E-11;
-1,7150654448443E-11;
-1,86932489575272E-11;
-1,47711911332285E-11;
-3,22032611360949E-12;
1,4671833847697E-11;
2,76151522747413E-11;
3,1515969153909E-11;
2,80581139347967E-11;
2,00364612489585E-11;
1,60110201360172E-11;
